Time_s,Channel_0
0.000000,0.0
0.000466,0.0
0.000931,0.0
0.001397,0.0
0.001862,0.0
0.002328,0.0
0.002793,0.0
0.003259,0.0
0.003724,0.0
0.004190,0.0
0.004655,0.0
0.005121,0.0
0.005586,0.0
0.006052,0.0
0.006517,0.0
0.006983,0.0
0.007448,0.0
0.007914,0.0
0.008379,0.0
0.008845,0.0
0.009310,0.0
0.009776,0.0
0.010241,0.0
0.010707,0.0
0.011172,0.0
0.011638,0.0
0.012103,0.0
0.012569,0.0
0.013034,0.0
0.013500,0.0
0.013966,0.0
0.014431,0.0
0.014897,0.0
0.015362,0.0
0.015828,0.0
0.016293,0.0
0.016759,0.0
0.017224,0.0
0.017690,0.0
0.018155,0.0
0.018621,0.0
0.019086,0.0
0.019552,0.0
0.020017,0.0
0.020483,0.0
0.020948,0.0
0.021414,0.0
0.021879,0.0
0.022345,0.0
0.022810,0.0
0.023276,0.0
0.023741,0.0
0.024207,0.0
0.024672,0.0
0.025138,0.0
0.025603,0.0
0.026069,0.0
0.026534,0.0
0.027000,0.0
0.027465,0.0
0.027931,0.0
0.028397,0.0
0.028862,0.0
0.029328,0.0
0.029793,0.0
0.030259,0.0
0.030724,0.0
0.031190,0.0
0.031655,0.0
0.032121,0.0
0.032586,0.0
0.033052,0.0
0.033517,0.0
0.033983,0.0
0.034448,0.0
0.034914,0.0
0.035379,0.0
0.035845,0.0
0.036310,0.0
0.036776,0.0
0.037241,0.0
0.037707,0.0
0.038172,0.0
0.038638,0.0
0.039103,0.0
0.039569,0.0
0.040034,0.0
0.040500,0.0
0.040965,0.0
0.041431,0.0
0.041897,0.0
0.042362,0.0
0.042828,0.0
0.043293,0.0
0.043759,0.0
0.044224,0.0
0.044690,0.0
0.045155,0.0
0.045621,0.0
0.046086,0.0
0.046552,0.0
0.047017,0.0
0.047483,0.0
0.047948,0.0
0.048414,0.0
0.048879,0.0
0.049345,0.0
0.049810,0.0
0.050276,0.0
0.050741,0.0
0.051207,0.0
0.051672,0.0
0.052138,0.0
0.052603,0.0
0.053069,0.0
0.053534,0.0
0.054000,0.0
0.054465,0.0
0.054931,0.0
0.055397,0.0
0.055862,0.0
0.056328,0.0
0.056793,0.0
0.057259,0.0
0.057724,0.0
0.058190,0.0
0.058655,0.0
0.059121,0.0
0.059586,0.0
0.060052,0.0
0.060517,0.0
0.060983,0.0
0.061448,0.0
0.061914,0.0
0.062379,0.0
0.062845,0.0
0.063310,0.0
0.063776,0.0
0.064241,0.0
0.064707,0.0
0.065172,0.0
0.065638,0.0
0.066103,0.0
0.066569,0.0
0.067034,0.0
0.067500,0.0
0.067965,0.0
0.068431,0.0
0.068896,0.0
0.069362,0.0
0.069828,0.0
0.070293,0.0
0.070759,0.0
0.071224,0.0
0.071690,0.0
0.072155,0.0
0.072621,0.0
0.073086,0.0
0.073552,0.0
0.074017,0.0
0.074483,0.0
0.074948,0.0
0.075414,0.0
0.075879,0.0
0.076345,0.0
0.076810,0.0
0.077276,0.0
0.077741,0.0
0.078207,0.0
0.078672,0.0
0.079138,0.0
0.079603,0.0
0.080069,0.0
0.080534,0.0
0.081000,0.0
0.081465,0.0
0.081931,0.0
0.082396,0.0
0.082862,0.0
0.083328,0.0
0.083793,0.0
0.084259,0.0
0.084724,0.0
0.085190,0.0
0.085655,0.0
0.086121,0.0
0.086586,0.0
0.087052,0.0
0.087517,0.0
0.087983,0.0
0.088448,0.0
0.088914,0.0
0.089379,0.0
0.089845,0.0
0.090310,0.0
0.090776,0.0
0.091241,0.0
0.091707,0.0
0.092172,0.0
0.092638,0.0
0.093103,0.0
0.093569,0.0
0.094034,0.0
0.094500,0.0
0.094965,0.0
0.095431,0.0
0.095896,0.0
0.096362,0.0
0.096828,0.0
0.097293,0.0
0.097759,0.0
0.098224,0.0
0.098690,0.0
0.099155,0.0
0.099621,0.0
0.100086,0.0
0.100552,0.0
0.101017,0.0
0.101483,0.0
0.101948,0.0
0.102414,0.0
0.102879,0.0
0.103345,0.0
0.103810,0.0
0.104276,0.0
0.104741,0.0
0.105207,0.0
0.105672,0.0
0.106138,0.0
0.106603,0.0
0.107069,0.0
0.107534,0.0
0.108000,0.0
0.108465,0.0
0.108931,0.0
0.109396,0.0
0.109862,0.0
0.110327,0.0
0.110793,0.0
0.111259,0.0
0.111724,0.0
0.112190,0.0
0.112655,0.0
0.113121,0.0
0.113586,0.0
0.114052,0.0
0.114517,0.0
0.114983,0.0
0.115448,0.0
0.115914,0.0
0.116379,0.0
0.116845,0.0
0.117310,0.0
0.117776,0.0
0.118241,0.0
0.118707,0.0
0.119172,0.0
0.119638,0.0
0.120103,0.0
0.120569,0.0
0.121034,0.0
0.121500,0.0
0.121965,0.0
0.122431,0.0
0.122896,0.0
0.123362,0.0
0.123827,0.0
0.124293,0.0
0.124759,0.0
0.125224,0.0
0.125690,0.0
0.126155,0.0
0.126621,0.0
0.127086,0.0
0.127552,0.0
0.128017,0.0
0.128483,0.0
0.128948,0.0
0.129414,0.0
0.129879,0.0
0.130345,0.0
0.130810,0.0
0.131276,0.0
0.131741,0.0
0.132207,0.0
0.132672,0.0
0.133138,0.0
0.133603,0.0
0.134069,0.0
0.134534,0.0
0.135000,0.0
0.135465,0.0
0.135931,0.0
0.136396,0.0
0.136862,0.0
0.137327,0.0
0.137793,0.0
0.138259,0.0
0.138724,0.0
0.139190,0.0
0.139655,0.0
0.140121,0.0
0.140586,0.0
0.141052,0.0
0.141517,0.0
0.141983,0.0
0.142448,0.0
0.142914,0.0
0.143379,0.0
0.143845,0.0
0.144310,0.0
0.144776,0.0
0.145241,0.0
0.145707,0.0
0.146172,0.0
0.146638,0.0
0.147103,0.0
0.147569,0.0
0.148034,0.0
0.148500,0.0
0.148965,0.0
0.149431,0.0
0.149896,0.0
0.150362,0.0
0.150827,0.0
0.151293,0.0
0.151758,0.0
0.152224,0.0
0.152690,0.0
0.153155,0.0
0.153621,0.0
0.154086,0.0
0.154552,0.0
0.155017,0.0
0.155483,0.0
0.155948,0.0
0.156414,0.0
0.156879,0.0
0.157345,0.0
0.157810,0.0
0.158276,0.0
0.158741,0.0
0.159207,0.0
0.159672,0.0
0.160138,0.0
0.160603,0.0
0.161069,0.0
0.161534,0.0
0.162000,0.0
0.162465,0.0
0.162931,0.0
0.163396,0.0
0.163862,0.0
0.164327,0.0
0.164793,0.0
0.165258,0.0
0.165724,0.0
0.166190,0.0
0.166655,0.0
0.167121,0.0
0.167586,0.0
0.168052,0.0
0.168517,0.0
0.168983,0.0
0.169448,0.0
0.169914,0.0
0.170379,0.0
0.170845,0.0
0.171310,0.0
0.171776,0.0
0.172241,0.0
0.172707,0.0
0.173172,0.0
0.173638,0.0
0.174103,0.0
0.174569,0.0
0.175034,0.0
0.175500,0.0
0.175965,0.0
0.176431,0.0
0.176896,0.0
0.177362,0.0
0.177827,0.0
0.178293,0.0
0.178758,0.0
0.179224,0.0
0.179690,0.0
0.180155,0.0
0.180621,0.0
0.181086,0.0
0.181552,0.0
0.182017,0.0
0.182483,0.0
0.182948,0.0
0.183414,0.0
0.183879,0.0
0.184345,0.0
0.184810,0.0
0.185276,0.0
0.185741,0.0
0.186207,0.0
0.186672,0.0
0.187138,0.0
0.187603,0.0
0.188069,0.0
0.188534,0.0
0.189000,0.0
0.189465,0.0
0.189931,0.0
0.190396,0.0
0.190862,0.0
0.191327,0.0
0.191793,0.0
0.192258,0.0
0.192724,0.0
0.193189,0.0
0.193655,0.0
0.194121,0.0
0.194586,0.0
0.195052,0.0
0.195517,0.0
0.195983,0.0
0.196448,0.0
0.196914,0.0
0.197379,0.0
0.197845,0.0
0.198310,0.0
0.198776,0.0
0.199241,0.0
0.199707,0.0
0.200172,0.0
0.200638,0.0
0.201103,0.0
0.201569,0.0
0.202034,0.0
0.202500,0.0
0.202965,0.0
0.203431,0.0
0.203896,0.0
0.204362,0.0
0.204827,0.0
0.205293,0.0
0.205758,0.0
0.206224,0.0
0.206689,0.0
0.207155,0.0
0.207621,0.0
0.208086,0.0
0.208552,0.0
0.209017,0.0
0.209483,0.0
0.209948,0.0
0.210414,0.0
0.210879,0.0
0.211345,0.0
0.211810,0.0
0.212276,0.0
0.212741,0.0
0.213207,0.0
0.213672,0.0
0.214138,0.0
0.214603,0.0
0.215069,0.0
0.215534,0.0
0.216000,0.0
0.216465,0.0
0.216931,0.0
0.217396,0.0
0.217862,0.0
0.218327,0.0
0.218793,0.0
0.219258,0.0
0.219724,0.0
0.220189,0.0
0.220655,0.0
0.221120,0.0
0.221586,0.0
0.222052,0.0
0.222517,0.0
0.222983,0.0
0.223448,0.0
0.223914,0.0
0.224379,0.0
0.224845,0.0
0.225310,0.0
0.225776,0.0
0.226241,0.0
0.226707,0.0
0.227172,0.0
0.227638,0.0
0.228103,0.0
0.228569,0.0
0.229034,0.0
0.229500,0.0
0.229965,0.0
0.230431,0.0
0.230896,0.0
0.231362,0.0
0.231827,0.0
0.232293,0.0
0.232758,0.0
0.233224,0.0
0.233689,0.0
0.234155,0.0
0.234620,0.0
0.235086,0.0
0.235552,0.0
0.236017,0.0
0.236483,0.0
0.236948,0.0
0.237414,0.0
0.237879,0.0
0.238345,0.0
0.238810,0.0
0.239276,0.0
0.239741,0.0
0.240207,0.0
0.240672,0.0
0.241138,0.0
0.241603,0.0
0.242069,0.0
0.242534,0.0
0.243000,-0.8140688181887541
0.243465,-0.09752040894178682
0.243931,-0.09684901197833219
0.244396,-0.04682993820096131
0.244862,-0.553398947127489
0.245327,-2.072266727702754
0.245793,-4.008072022583352
0.246258,-5.371511406118867
0.246724,-5.230518043793393
0.247189,-4.043488212405585
0.247655,-3.3316395819027997
0.248120,-3.960234988937209
0.248586,-4.811398489356833
0.249052,-3.611108567940795
0.249517,-1.5381704432745857
0.249983,-1.58466468299382
0.250448,-3.4031433585107194
0.250914,-5.251834897383078
0.251379,-5.491020065613794
0.251845,-5.493034256504157
0.252310,-5.493537804226749
0.252776,-5.493873502708476
0.253241,-5.49404135194934
0.253707,-5.49404135194934
0.254172,-5.494209201190204
0.254638,-5.494377050431067
0.255103,-5.49404135194934
0.255569,-5.494377050431067
0.256034,-5.494209201190204
0.256500,-4.885420004577706
0.256965,2.997787441824979
0.257431,5.486488136110475
0.257896,5.490516517891203
0.258362,5.491187914854658
0.258827,5.4918593118181125
0.259293,5.492530708781567
0.259758,5.492530708781567
0.260224,5.493202105745021
0.260689,5.493202105745021
0.261155,5.492530708781567
0.261620,5.4918593118181125
0.262086,5.492530708781567
0.262551,5.492530708781567
0.263017,5.492530708781567
0.263483,5.492530708781567
0.263948,5.4928664072632944
0.264414,5.493034256504157
0.264879,5.493202105745021
0.265345,5.4928664072632944
0.265810,5.493202105745021
0.266276,5.492530708781567
0.266741,5.492530708781567
0.267207,5.492530708781567
0.267672,5.492530708781567
0.268138,5.492530708781567
0.268603,5.492530708781567
0.269069,5.492530708781567
0.269534,5.492530708781567
0.270000,5.4928664072632944
0.270465,5.493202105745021
0.270931,5.493202105745021
0.271396,3.5797207598992897
0.271862,3.44258793011368
0.272327,3.2319371328297857
0.272793,2.410147249561303
0.273258,1.491676203555352
0.273724,0.7920805676356145
0.274189,0.24757763027389945
0.274655,-0.2620126649881742
0.275120,-0.7564965285725185
0.275586,-1.2100251773861295
0.276051,-1.6101777676050963
0.276517,-1.9640039673456928
0.276983,-2.2787212939650567
0.277448,-2.5578545815213243
0.277914,-2.8012359807736327
0.278379,-3.010711833371481
0.278845,-3.1887998779278246
0.279310,-3.3376821545738915
0.279776,-3.4587014572365913
0.280241,-3.5542076752880143
0.280707,-3.6257114518959335
0.281172,-3.675226977950713
0.281638,-3.704097047379263
0.282103,-3.7136644541084918
0.282569,-3.7056076905470356
0.283034,-3.6817730983443964
0.283500,-3.6429999237048905
0.283965,-3.5907988097962917
0.284431,-3.5263447013046463
0.284896,-3.4506446936751347
0.285362,-3.365377279316396
0.285827,-3.271213855191882
0.286293,-3.1689936675059127
0.286758,-3.060059510185397
0.287224,-2.9452506294346534
0.287689,-2.8254062714579993
0.288155,-2.7010299839780267
0.288620,-2.572961013199054
0.289086,-2.442206454566262
0.289551,-2.309269855802243
0.290017,-2.174990463111314
0.290483,-2.039200427252613
0.290948,-1.903242542153048
0.291414,-1.7671168078126196
0.291879,-1.631158922713054
0.292345,-1.4960402838178073
0.292810,-1.3624322880903332
0.293276,-1.2306706340123597
0.293741,-1.1009231708247502
0.294207,-0.9726863508049135
0.294672,-0.8474708171206226
0.295138,-0.7242694743266956
0.295603,-0.6047608148317694
0.296069,-0.48760204470893415
0.296534,-0.3739681086442359
0.297000,-0.26419470511940185
0.297465,-0.15727473868925002
0.297931,-0.05387960631723506
0.298396,0.04582284275577936
0.298862,0.14183260852979326
0.299327,0.2341496910048066
0.299793,0.32243839169909205
0.300258,0.4072022583352407
0.300724,0.4884412909132525
0.301189,0.5658197909514
0.301655,0.6396734569314106
0.302120,0.7094987411306934
0.302586,0.7757991912718394
0.303051,0.8387426565957121
0.303517,0.8979934386205843
0.303982,0.9535515373464561
0.304448,1.0062561989776455
0.304914,1.055939574273289
0.305379,1.1022659647516593
0.305845,1.1452353704127562
0.306310,1.1855191882200349
0.306776,1.2224460212100403
0.307241,1.2566872663462272
0.307707,1.2882429236285955
0.308172,1.317112993057145
0.308638,1.343297474631876
0.309103,1.367132066834516
0.309569,1.388952468146792
0.310034,1.408087281605249
0.310500,1.424872205691615
0.310965,1.4399786373693444
0.311431,1.4537422751201647
0.311896,1.465995269703212
0.312362,1.4775768673228045
0.312827,1.4977187762264437
0.313293,2.178179598687724
0.313758,5.207858396276798
0.314224,5.490180819409476
0.314689,5.4918593118181125
0.315155,5.492530708781567
0.315620,5.492530708781567
0.316086,5.493202105745021
0.316551,5.493202105745021
0.317017,5.493202105745021
0.317482,5.493202105745021
0.317948,5.493202105745021
0.318414,5.493873502708476
0.318879,5.493873502708476
0.319345,5.493202105745021
0.319810,5.493202105745021
0.320276,5.493873502708476
0.320741,5.493705653467612
0.321207,5.493537804226749
0.321672,5.493202105745021
0.322138,5.493202105745021
0.322603,5.493202105745021
0.323069,5.4928664072632944
0.323534,5.493202105745021
0.324000,5.493202105745021
0.324465,5.493202105745021
0.324931,5.492530708781567
0.325396,5.492530708781567
0.325862,5.493537804226749
0.326327,5.493873502708476
0.326793,5.493705653467612
0.327258,5.493202105745021
0.327724,5.493202105745021
0.328189,5.493873502708476
0.328655,5.493873502708476
0.329120,3.30411230640116
0.329586,-1.7310292210269322
0.330051,-4.216037232013427
0.330517,-5.466849774929427
0.330982,-5.490348668650339
0.331448,-5.4918593118181125
0.331914,-5.492530708781567
0.332379,-5.4928664072632944
0.332845,-5.493034256504157
0.333310,-5.493202105745021
0.333776,-5.493202105745021
0.334241,-5.493202105745021
0.334707,-5.493369954985885
0.335172,-5.493537804226749
0.335638,-5.493537804226749
0.336103,-5.493705653467612
0.336569,-5.493537804226749
0.337034,-5.493705653467612
0.337500,-5.493537804226749
0.337965,-5.493537804226749
0.338431,-5.493537804226749
0.338896,-5.493369954985885
0.339362,-5.493537804226749
0.339827,-5.493705653467612
0.340293,-5.493537804226749
0.340758,-5.493369954985885
0.341224,-5.493537804226749
0.341689,-5.493705653467612
0.342155,-5.493873502708476
0.342620,-5.494377050431067
0.343086,-5.49454489967193
0.343551,-5.494712748912795
0.344017,-5.49454489967193
0.344482,-5.494377050431067
0.344948,-5.49454489967193
0.345413,-5.49454489967193
0.345879,-5.494377050431067
0.346345,-5.494712748912795
0.346810,-5.49454489967193
0.347276,-5.49454489967193
0.347741,-5.494712748912795
0.348207,-5.49454489967193
0.348672,-5.494712748912795
0.349138,-5.49454489967193
0.349603,-5.494712748912795
0.350069,-5.49454489967193
0.350534,-5.49454489967193
0.351000,-5.49454489967193
0.351465,-5.49454489967193
0.351931,-5.494712748912795
0.352396,-5.494377050431067
0.352862,-5.49454489967193
0.353327,-5.494880598153658
0.353793,-5.49454489967193
0.354258,-5.494712748912795
0.354724,-5.49454489967193
0.355189,-5.49454489967193
0.355655,-5.494377050431067
0.356120,-5.494377050431067
0.356586,-5.494377050431067
0.357051,-5.49454489967193
0.357517,-3.800778210116732
0.357982,-1.3537041275654231
0.358448,0.9456626230258641
0.358913,2.9757991912718396
0.359379,4.813412680247196
0.359845,5.488838025482566
0.360310,5.4918593118181125
0.360776,5.4918593118181125
0.361241,5.492530708781567
0.361707,5.4928664072632944
0.362172,5.4928664072632944
0.362638,5.4928664072632944
0.363103,5.492530708781567
0.363569,5.493202105745021
0.364034,5.493202105745021
0.364500,5.493034256504157
0.364965,5.4928664072632944
0.365431,5.4928664072632944
0.365896,5.492530708781567
0.366362,5.493202105745021
0.366827,5.493202105745021
0.367293,5.4928664072632944
0.367758,5.493034256504157
0.368224,5.493202105745021
0.368689,5.493202105745021
0.369155,5.493202105745021
0.369620,5.493202105745021
0.370086,5.493202105745021
0.370551,5.493202105745021
0.371017,5.493202105745021
0.371482,5.493034256504157
0.371948,5.493202105745021
0.372413,5.4928664072632944
0.372879,5.492530708781567
0.373345,-0.7153734645609215
0.373810,-5.42941939421683
0.374276,-5.490516517891203
0.374741,-5.492530708781567
0.375207,-5.493202105745021
0.375672,-5.493369954985885
0.376138,-5.493705653467612
0.376603,-5.493705653467612
0.377069,-5.493873502708476
0.377534,-5.494209201190204
0.378000,-5.49404135194934
0.378465,-5.494377050431067
0.378931,-5.494209201190204
0.379396,-5.494209201190204
0.379862,-5.494377050431067
0.380327,-0.38454261081864644
0.380793,5.462317845426108
0.381258,5.489845120927748
0.381724,5.4918593118181125
0.382189,5.492530708781567
0.382655,5.492530708781567
0.383120,5.493202105745021
0.383586,5.492530708781567
0.384051,5.4928664072632944
0.384517,5.4928664072632944
0.384982,5.493202105745021
0.385448,5.4928664072632944
0.385913,5.493202105745021
0.386379,5.493202105745021
0.386844,5.493202105745021
0.387310,5.493202105745021
0.387776,5.493202105745021
0.388241,5.493202105745021
0.388707,5.493202105745021
0.389172,5.493873502708476
0.389638,5.493202105745021
0.390103,5.493202105745021
0.390569,5.493202105745021
0.391034,5.493034256504157
0.391500,5.493202105745021
0.391965,5.493202105745021
0.392431,5.492530708781567
0.392896,5.492530708781567
0.393362,5.4928664072632944
0.393827,5.493202105745021
0.394293,5.492530708781567
0.394758,5.4918593118181125
0.395224,5.492530708781567
0.395689,5.493034256504157
0.396155,5.4928664072632944
0.396620,5.493202105745021
0.397086,5.4928664072632944
0.397551,5.493202105745021
0.398017,5.493202105745021
0.398482,5.493202105745021
0.398948,5.492530708781567
0.399413,5.493202105745021
0.399879,5.4923628595407035
0.400344,5.492530708781567
0.400810,5.4928664072632944
0.401276,5.492530708781567
0.401741,5.492530708781567
0.402207,5.493202105745021
0.402672,5.493705653467612
0.403138,5.071229114213779
0.403603,1.1566491187914856
0.404069,0.07687495231555656
0.404534,-0.21770046540016783
0.405000,-0.7323262378881514
0.405465,-1.157824063477531
0.405931,-1.5698939497978177
0.406396,-1.992202639810788
0.406862,-2.1932860303654533
0.407327,-2.2263523308155944
0.407793,-2.5541618982223238
0.408258,-2.966567483024338
0.408724,-2.9845273517967494
0.409189,-2.676691844052796
0.409655,-2.412832837415122
0.410120,-2.3879911497672994
0.410586,-1.9614862287327381
0.411051,-1.3330586709391927
0.411517,-1.1949187457084
0.411982,-1.4908369573510336
0.412448,-1.9265735866330969
0.412913,-2.344686045624475
0.413379,-2.725368123903258
0.413844,-3.096986343175402
0.414310,-3.473304341191729
0.414776,-3.865735866330968
0.415241,-4.262867170214388
0.415707,-4.629449912260624
0.416172,-4.937453269245441
0.416638,-5.1828488593881135
0.417103,-5.3773861295490955
0.417569,-5.490684367132067
0.418034,-5.4928664072632944
0.418500,-5.493537804226749
0.418965,-5.493705653467612
0.419431,-5.493873502708476
0.419896,-5.49404135194934
0.420362,-5.493705653467612
0.420827,-5.49404135194934
0.421293,-5.494209201190204
0.421758,-5.49404135194934
0.422224,-5.494377050431067
0.422689,-5.494209201190204
0.423155,-5.440329594872968
0.423620,-5.2988326848249026
0.424086,-5.156496528572517
0.424551,-5.020706492713817
0.425017,-4.903715571831846
0.425482,-4.781185626001373
0.425948,-4.636499580376897
0.426413,-4.491981383993286
0.426879,-4.358876935988403
0.427344,-4.194216830701151
0.427810,-3.988937209124895
0.428275,-3.7851682307164114
0.428741,-3.6089265278095675
0.429207,-3.4407415884641797
0.429672,-3.2861524376287474
0.430138,-3.1553978789959563
0.430603,-3.020111390859846
0.431069,-2.878446631570916
0.431534,-2.7431601434348054
0.432000,-2.634729533836881
0.432465,-2.5504692149233232
0.432931,-2.4608377203021283
0.433396,-2.342336156252384
0.433862,-2.2020141908903637
0.434327,-2.0657206073090713
0.434793,-1.9572899977111464
0.435258,-1.933791103990234
0.435724,-1.9838101777676047
0.436189,-2.0358434424353393
0.436655,-2.0489356832227053
0.437120,-2.0444037537193864
0.437586,-2.0388647287708856
0.438051,-2.0103303578240634
0.438517,-1.9700465400167848
0.438982,-1.9250629434653237
0.439448,-1.8612802319371329
0.439913,-1.773662928206302
0.440379,-1.6860456244754711
0.440844,-1.602792401007095
0.441310,-1.5299458304722666
0.441775,-1.482780193789578
0.442241,-1.4280613412680248
0.442707,-1.3691462577248799
0.443172,-1.3672999160753796
0.443638,-1.4149691004806593
0.444103,-1.3763637750820172
0.444569,-1.1967650873579005
0.445034,-0.8968184939345386
0.445500,-0.5433279926756693
0.445965,-0.1790951400015259
0.446431,0.2046082246128023
0.446896,0.6443732356755931
0.447362,1.1109941252765696
0.447827,1.5077897306782635
0.448293,1.8938429846646831
0.448758,2.454795147631037
0.449224,3.289341573205158
0.449689,4.339742122529946
0.450155,5.426565957122149
0.450620,5.491187914854658
0.451086,5.492195010299839
0.451551,5.492530708781567
0.452017,5.492530708781567
0.452482,5.492530708781567
0.452948,5.4928664072632944
0.453413,5.493202105745021
0.453879,5.492530708781567
0.454344,5.493034256504157
0.454810,3.315861753261616
0.455275,0.40115968566414895
0.455741,0.14485389486533912
0.456207,0.44328984512092773
0.456672,0.28970778973067823
0.457138,-0.14955367360952163
0.457603,-0.706813153276875
0.458069,-1.4315861753261614
0.458534,-2.5581902800030516
0.459000,-4.037949187457084
0.459465,-5.472388799877928
0.459931,-5.491691462577248
0.460396,-5.492698558022431
0.460862,-5.493537804226749
0.461327,-5.493873502708476
0.461793,-5.49404135194934
0.462258,-5.494209201190204
0.462724,-5.493873502708476
0.463189,-5.494377050431067
0.463655,-5.494377050431067
0.464120,-5.49404135194934
0.464586,-5.494209201190204
0.465051,-5.49404135194934
0.465517,-5.494209201190204
0.465982,-5.494377050431067
0.466448,-5.494377050431067
0.466913,-5.494209201190204
0.467379,-5.49454489967193
0.467844,-5.494377050431067
0.468310,-2.585046158541237
0.468775,1.0646677347981994
0.469241,1.6625467307545587
0.469706,0.437247272449836
0.470172,-1.5794613565270466
0.470638,-4.001358052948806
0.471103,-5.464835584039063
0.471569,-5.492027161058976
0.472034,-5.493202105745021
0.472500,-5.493705653467612
0.472965,-5.493873502708476
0.473431,-5.49404135194934
0.473896,-5.49404135194934
0.474362,-5.494209201190204
0.474827,-5.494209201190204
0.475293,-5.494377050431067
0.475758,-5.494377050431067
0.476224,-5.494209201190204
0.476689,-5.494377050431067
0.477155,-5.494209201190204
0.477620,-5.494377050431067
0.478086,-5.494377050431067
0.478551,-5.49404135194934
0.479017,-5.02221713588159
0.479482,-4.008407721065081
0.479948,-3.1285420004577706
0.480413,0.3550011444266422
0.480879,5.4683604180972
0.481344,5.490516517891203
0.481810,5.491691462577248
0.482275,5.4918593118181125
0.482741,5.491691462577248
0.483206,5.4918593118181125
0.483672,5.492195010299839
0.484138,5.492530708781567
0.484603,5.492195010299839
0.485069,5.492530708781567
0.485534,5.492530708781567
0.486000,5.492530708781567
0.486465,5.492530708781567
0.486931,5.492530708781567
0.487396,5.4918593118181125
0.487862,5.493202105745021
0.488327,5.4918593118181125
0.488793,5.4918593118181125
0.489258,5.4928664072632944
0.489724,5.493034256504157
0.490189,5.492530708781567
0.490655,5.492530708781567
0.491120,5.493537804226749
0.491586,5.4928664072632944
0.492051,5.493202105745021
0.492517,5.493202105745021
0.492982,5.493202105745021
0.493448,5.493202105745021
0.493913,4.32899977111467
0.494379,4.434409094377051
0.494844,4.333028152895399
0.495310,3.6166475928892954
0.495775,2.825070572976272
0.496241,2.2456549935149153
0.496706,1.7978332188906687
0.497172,1.3664606698710613
0.497638,0.9387808041504537
0.498103,0.5433279926756693
0.498569,0.1915159838254368
0.499034,-0.12370489051651787
0.499500,-0.40971999694819555
0.499965,-0.6678721293965056
0.500431,-0.8984969863431752
0.500896,-1.1029373617151141
0.501362,-1.2822003509575033
0.501827,-1.438300144960708
0.502293,-1.5732509346150911
0.502758,-1.6873884184023806
0.503224,-1.7825589379720759
0.503689,-1.8594338902876324
0.504155,-1.9198596169985505
0.504620,-1.9651789120317384
0.505086,-1.9958953231097882
0.505551,-2.0133516441596093
0.506017,-2.018554970626383
0.506482,-2.0123445487144274
0.506948,-1.995727473868925
0.507413,-1.9700465400167848
0.507879,-1.9358052948805982
0.508344,-1.8931715877012283
0.508810,-1.8438239108873122
0.509275,-1.7887693598840315
0.509741,-1.7283436331731137
0.510206,-1.6625467307545587
0.510672,-1.5923857480735484
0.511137,-1.5190356298161287
0.511603,-1.4424963759822993
0.512069,-1.3632715342946515
0.512534,-1.281864652475776
0.513000,-1.1986114290074006
0.513465,-1.1146868085755703
0.513931,-1.0295872434576943
0.514396,-0.9443198290989548
0.514862,-0.858548867017624
0.515327,-0.7729457541771573
0.515793,-0.6881818875410086
0.516258,-0.6040894178683145
0.516724,-0.520836194399939
0.517189,-0.43892576485847257
0.517655,-0.3578545815213245
0.518120,-0.2787975890745403
0.518586,-0.2015869382772564
0.519051,-0.1257190814068818
0.519517,-0.051529716945143814
0.519982,0.019974059662775615
0.520448,0.08963149462119477
0.520913,0.1576104371709773
0.521379,0.223071641107805
0.521844,0.28584725719081405
0.522310,0.34627298390173183
0.522775,0.40468451972228575
0.523241,0.4607461661707485
0.523706,0.5144579232471199
0.524172,0.5651483939879453
0.524637,0.6138246738384069
0.525103,0.6594796673533226
0.525569,0.7034561684596017
0.526034,0.7454184786755168
0.526500,0.7850308995193408
0.526965,0.8216220340276189
0.527431,0.8565346761272602
0.527896,0.8892652780956739
0.528362,0.9203173876554511
0.528827,0.948180361638819
0.529293,0.9743648432135501
0.529758,0.9992065308613717
0.530224,1.0220340276188296
0.530689,1.0428473334859234
0.531155,1.0619821469443806
0.531620,1.0791027695124742
0.532086,1.094544899671931
0.532551,1.108308537422751
0.533017,1.1210650797283894
0.533482,1.1316395819028
0.533948,1.1417105363546196
0.534413,1.1497672999160753
0.534879,1.156816968032349
0.535344,1.1623559929808498
0.535810,1.1667200732433052
0.536275,1.1700770580605784
0.536741,1.1720912489509423
0.537206,1.1734340428778516
0.537672,1.1741054398413062
0.538137,1.1734340428778516
0.538603,1.1720912489509423
0.539069,1.1700770580605784
0.539534,1.1667200732433052
0.540000,1.1633630884260318
0.540465,1.1589990081635768
0.540931,1.1542992294193941
0.541396,1.1485923552300297
0.541862,1.1432211795223923
0.542327,1.1361715114061186
0.542793,1.1287861448081178
0.543258,1.1217364766918438
0.543724,1.1140154116121155
0.544189,1.1056229495689325
0.544655,1.0979018844892041
0.545120,1.0888380254825665
0.545586,1.0801098649576562
0.546051,1.0710460059510185
0.546517,1.0619821469443806
0.546982,1.0519111924925613
0.547448,1.042511635004196
0.547913,1.0331120775158313
0.548379,1.0230411230640115
0.548844,1.012970168612192
0.549310,1.002899214160372
0.549775,0.9928282597085527
0.550241,0.9830930037384603
0.550706,0.973357747768368
0.551172,0.9632867933165484
0.551637,0.9528801403830014
0.552103,0.9428091859311818
0.552568,0.9327382314793622
0.553034,0.9226672770275426
0.553500,0.9129320210574503
0.553965,0.9031967650873579
0.554431,0.8934615091172654
0.554896,0.8827191577019915
0.555362,0.8726482032501717
0.555827,0.8619058518348974
0.556293,0.8541847867551691
0.556758,0.6846570534828716
0.557224,-0.8347142748149842
0.557689,-4.2967727168688485
0.558155,-5.487327382314794
0.558620,-5.492195010299839
0.559086,-5.493202105745021
0.559551,-5.493537804226749
0.560017,-5.493705653467612
0.560482,-5.493873502708476
0.560948,-5.494209201190204
0.561413,-5.49404135194934
0.561879,-5.49404135194934
0.562344,-5.49404135194934
0.562810,-5.494209201190204
0.563275,-5.49404135194934
0.563741,-0.9318989852750439
0.564206,5.455939574273288
0.564672,5.49085221637293
0.565137,5.4918593118181125
0.565603,5.4918593118181125
0.566068,5.4918593118181125
0.566534,5.4928664072632944
0.567000,5.492530708781567
0.567465,5.4928664072632944
0.567931,5.493202105745021
0.568396,5.4928664072632944
0.568862,5.493202105745021
0.569327,5.493202105745021
0.569793,5.493202105745021
0.570258,5.492530708781567
0.570724,5.492530708781567
0.571189,5.492530708781567
0.571655,5.493202105745021
0.572120,5.4928664072632944
0.572586,5.492530708781567
0.573051,5.492530708781567
0.573517,5.4928664072632944
0.573982,5.4928664072632944
0.574448,5.492530708781567
0.574913,5.493202105745021
0.575379,5.493202105745021
0.575844,5.493202105745021
0.576310,5.4928664072632944
0.576775,5.493202105745021
0.577241,5.492530708781567
0.577706,5.493202105745021
0.578172,5.493873502708476
0.578637,5.4928664072632944
0.579103,5.492530708781567
0.579568,5.493202105745021
0.580034,5.493202105745021
0.580499,1.6398870832379644
0.580965,-1.7129015030136567
0.581431,-1.8344243533989468
0.581896,-2.460502021820401
0.582362,-5.399374380102236
0.582827,-5.490516517891203
0.583293,-5.492530708781567
0.583758,-5.493369954985885
0.584224,-5.493537804226749
0.584689,-5.493873502708476
0.585155,-5.494209201190204
0.585620,-5.493873502708476
0.586086,-5.49404135194934
0.586551,-5.49404135194934
0.587017,-5.49404135194934
0.587482,-5.494377050431067
0.587948,-5.494377050431067
0.588413,-5.49454489967193
0.588879,-5.494377050431067
0.589344,-5.494377050431067
0.589810,-5.494712748912795
0.590275,-5.494377050431067
0.590741,-5.494377050431067
0.591206,-5.494377050431067
0.591672,-5.494377050431067
0.592137,-5.494377050431067
0.592603,-5.49454489967193
0.593068,-5.494377050431067
0.593534,-5.494377050431067
0.593999,-5.49454489967193
0.594465,-5.494377050431067
0.594931,-5.49454489967193
0.595396,-5.49454489967193
0.595862,-5.49454489967193
0.596327,-5.49454489967193
0.596793,-5.49454489967193
0.597258,-5.494377050431067
0.597724,-5.494377050431067
0.598189,-5.49454489967193
0.598655,-5.494377050431067
0.599120,-4.546532387273975
0.599586,-2.8844892042420085
0.600051,-1.40170901045243
0.600517,-0.04313725490196078
0.600982,1.2331883726253146
0.601448,2.422064545662623
0.601913,3.505195696955825
0.602379,4.480735484855421
0.602844,5.356237125200273
0.603310,5.490516517891203
0.603775,5.4918593118181125
0.604241,5.492530708781567
0.604706,5.493202105745021
0.605172,5.493202105745021
0.605637,5.493202105745021
0.606103,5.492530708781567
0.606568,5.493202105745021
0.607034,5.492530708781567
0.607499,5.492530708781567
0.607965,5.493202105745021
0.608431,5.493202105745021
0.608896,5.493202105745021
0.609362,5.493202105745021
0.609827,5.493202105745021
0.610293,5.493202105745021
0.610758,5.492530708781567
0.611224,5.4928664072632944
0.611689,5.493202105745021
0.612155,5.493202105745021
0.612620,5.493202105745021
0.613086,5.493202105745021
0.613551,5.493202105745021
0.614017,5.4918593118181125
0.614482,5.492530708781567
0.614948,4.919157701991303
0.615413,-3.4279850461585406
0.615879,-5.484641794460974
0.616344,-5.491523613336385
0.616810,-0.6816357671473258
0.617275,5.350865949492637
0.617741,5.490180819409476
0.618206,5.4918593118181125
0.618672,5.492530708781567
0.619137,5.4918593118181125
0.619603,5.4918593118181125
0.620068,5.4923628595407035
0.620534,5.493202105745021
0.620999,5.492530708781567
0.621465,5.4928664072632944
0.621930,5.493034256504157
0.622396,5.492530708781567
0.622862,5.492530708781567
0.623327,5.492530708781567
0.623793,5.492530708781567
0.624258,5.492530708781567
0.624724,5.4928664072632944
0.625189,5.492530708781567
0.625655,5.492530708781567
0.626120,5.4928664072632944
0.626586,5.492530708781567
0.627051,5.4918593118181125
0.627517,2.4326390478370334
0.627982,1.8186465247577628
0.628448,2.3480430304417483
0.628913,1.45810635538262
0.629379,-0.9866178377965971
0.629844,-3.2812848096437017
0.630310,-4.534111543450065
0.630775,-4.82919050888838
0.631241,-4.550225070572976
0.631706,-4.64254215304799
0.632172,-5.159517814908065
0.632637,-5.487998779278247
0.633103,-5.492530708781567
0.633568,-5.493202105745021
0.634034,-5.493369954985885
0.634499,-5.067200732433051
0.634965,-4.186495765621423
0.635430,-3.6777447165636685
0.635896,-3.624032959487297
0.636362,-3.4281528953994047
0.636827,-2.9684138246738385
0.637293,-2.484672312504768
0.637758,-2.4104829480430303
0.638224,-2.9523002975509267
0.638689,-3.730617227435722
0.639155,-4.483253223468376
0.639620,-4.75953307392996
0.640086,-4.4127565423056385
0.640551,-3.7327992675669486
0.641017,-2.945922026398107
0.641482,-1.9928740367742428
0.641948,-0.9606012054627298
0.642413,-0.09416342412451362
0.642879,0.5127794308384832
0.643344,0.6920424200808728
0.643810,0.3382162203402762
0.644275,-0.23549248493171587
0.644741,-0.6977492942702372
0.645206,-1.341283283741512
0.645672,-1.9431906614785992
0.646137,-2.2097352559700925
0.646603,-2.247501335164416
0.647068,-2.108354314488441
0.647534,-1.7387502861066602
0.647999,-0.8682841229877164
0.648465,0.3059891660944533
0.648930,1.145906767376211
0.649396,1.4842908369573509
0.649862,1.750835431448844
0.650327,2.2147707331960023
0.650793,2.8223849851224534
0.651258,3.363530937666896
0.651724,3.7140001525902187
0.652189,3.9943083848325314
0.652655,4.314900434882123
0.653120,4.630457007705805
0.653586,4.861417563134203
0.654051,5.027924010070954
0.654517,5.138536659800107
0.654982,5.181002517738612
0.655448,5.168245975432974
0.655913,5.1162127107652395
0.656379,5.03598077363241
0.656844,4.971526665140764
0.657310,4.923689631494621
0.657775,4.860746166170748
0.658241,4.787396047913328
0.658706,4.713038834210726
0.659172,4.63112840466926
0.659637,4.547875181200885
0.660103,4.451194018463417
0.660568,4.304493781948578
0.661034,4.114824139772641
0.661499,3.934218356603341
0.661965,3.7865110246433207
0.662430,3.642160677500572
0.662896,3.467597467002365
0.663361,3.2829633020523383
0.663827,3.107728694590677
0.664293,2.95062180514229
0.664758,2.8123140306706342
0.665224,2.6874341954680703
0.665689,2.5548332951857784
0.666155,2.414175631342031
0.666620,2.2735179674982833
0.667086,2.14679179064622
0.667551,2.0402075226977954
0.668017,1.9332875562676433
0.668482,1.7884336614023042
0.668948,1.6205844205386435
0.669413,1.5195391775387195
0.669879,1.5176928358892194
0.670344,1.628641184100099
0.670810,1.8387884336614024
0.671275,2.1071793698023957
0.671741,2.3574425879301137
0.672206,2.516563668268864
0.672672,2.609552147707332
0.673137,2.6773632410162507
0.673603,2.757930876630808
0.674068,2.8341344319829096
0.674534,2.8875104905775535
0.674999,2.95062180514229
0.675465,3.0399176012817577
0.675930,3.169832913710231
0.676396,3.314854657816434
0.676861,3.4293278400854508
0.677327,3.452155336842908
0.677793,3.456015869382773
0.678258,3.535408560311284
0.678724,3.589120317387655
0.679189,3.575020981155108
0.679655,3.672373540856031
0.680120,3.9912870984969864
0.680586,4.971526665140764
0.681051,5.489845120927748
0.681517,5.4918593118181125
0.681982,5.492195010299839
0.682448,5.438147554741741
0.682913,5.415320057984283
0.683379,5.346166170748454
0.683844,5.319981689173725
0.684310,5.291615167467765
0.684775,5.244113832303349
0.685241,5.189059281300069
0.685706,5.09372091248951
0.686172,4.621728847180895
0.686637,-1.2775005722133213
0.687103,-5.172106507972838
0.687568,-5.489341573205158
0.688034,-5.492195010299839
0.688499,-5.493202105745021
0.688965,-5.493537804226749
0.689430,-5.493873502708476
0.689896,-5.493873502708476
0.690361,-5.49404135194934
0.690827,-5.49404135194934
0.691293,-5.49404135194934
0.691758,-5.49404135194934
0.692224,-5.494209201190204
0.692689,-5.49404135194934
0.693155,-5.494377050431067
0.693620,-5.494377050431067
0.694086,-5.494209201190204
0.694551,-5.494377050431067
0.695017,-5.49454489967193
0.695482,-5.494209201190204
0.695948,-5.494209201190204
0.696413,-5.44586861982147
0.696879,-5.338948653391317
0.697344,-5.237567711909667
0.697810,-4.644388494697489
0.698275,-4.627939269092851
0.698741,-5.186373693446249
0.699206,-5.0228885328450446
0.699672,-3.948317692835889
0.700137,-2.7441672388799874
0.700603,-2.9100022888532844
0.701068,-4.936110475318531
0.701534,-5.492027161058976
0.701999,-5.493705653467612
0.702465,-5.493873502708476
0.702930,-5.494377050431067
0.703396,-5.49404135194934
0.703861,-5.494209201190204
0.704327,-5.494209201190204
0.704792,-5.494209201190204
0.705258,-5.494209201190204
0.705724,-5.494377050431067
0.706189,-5.494377050431067
0.706655,-5.494209201190204
0.707120,-3.405493247882811
0.707586,-1.086152437628748
0.708051,0.044815747310597384
0.708517,0.46779583428702226
0.708982,1.2204318303196764
0.709448,2.208056763561456
0.709913,2.632715342946517
0.710379,1.4013733119707026
0.710844,-0.8702983138780804
0.711310,-2.9556572823682
0.711775,-4.723445487144273
0.712241,-5.483802548256657
0.712706,-5.4923628595407035
0.713172,-5.493537804226749
0.713637,-5.493873502708476
0.714103,-5.49404135194934
0.714568,-5.49404135194934
0.715034,-5.494209201190204
0.715499,-5.494209201190204
0.715965,-5.494377050431067
0.716430,-5.494377050431067
0.716896,-5.494377050431067
0.717361,-5.494377050431067
0.717827,-5.494377050431067
0.718292,-5.494209201190204
0.718758,-5.49454489967193
0.719224,-5.49454489967193
0.719689,-5.494209201190204
0.720155,-5.494209201190204
0.720620,-5.494209201190204
0.721086,-5.494377050431067
0.721551,-5.494377050431067
0.722017,-5.494209201190204
0.722482,-5.494377050431067
0.722948,-5.494377050431067
0.723413,-5.494209201190204
0.723879,-5.04101625085832
0.724344,-2.9583428702220185
0.724810,-0.9233386739909971
0.725275,0.9713435568780039
0.725741,2.702876325627527
0.726206,4.252124818799115
0.726672,4.475364309147783
0.727137,2.0240939955748836
0.727603,-2.217792019531548
0.728068,-5.419851987487602
0.728534,-5.491020065613794
0.728999,-5.4928664072632944
0.729465,-1.8961928740367742
0.729930,5.424719615472648
0.730396,5.489845120927748
0.730861,5.4918593118181125
0.731327,5.4918593118181125
0.731792,5.492530708781567
0.732258,5.493202105745021
0.732724,5.493202105745021
0.733189,5.492530708781567
0.733655,5.492530708781567
0.734120,5.4928664072632944
0.734586,5.4928664072632944
0.735051,5.4928664072632944
0.735517,5.493034256504157
0.735982,5.492530708781567
0.736448,5.4928664072632944
0.736913,5.493202105745021
0.737379,5.492195010299839
0.737844,5.492530708781567
0.738310,5.4928664072632944
0.738775,5.4928664072632944
0.739241,5.492530708781567
0.739706,5.493202105745021
0.740172,5.493202105745021
0.740637,5.493202105745021
0.741103,5.492530708781567
0.741568,5.493202105745021
0.742034,5.492530708781567
0.742499,5.4928664072632944
0.742965,5.492530708781567
0.743430,5.2159151598382545
0.743896,3.3292896925307085
0.744361,3.2883344777599754
0.744827,3.0335393301289386
0.745292,2.19496452277409
0.745758,1.3063706416418706
0.746223,0.6413519493400471
0.746689,0.11598382543678949
0.747155,-0.38084992751964597
0.747620,-0.8629129472800793
0.748086,-1.3030136568245974
0.748551,-1.6907454032196538
0.749017,-2.033829251544976
0.749482,-2.3396505683985658
0.749948,-2.610559243152514
0.750413,-2.847058823529412
0.750879,-3.0504921034561683
0.751344,-3.223376821545739
0.751810,-3.3678950179293508
0.752275,-3.48572518501564
0.752741,-3.5782101167315172
0.753206,-3.647699702449073
0.753672,-3.6958724345769434
0.754137,-3.7244068055237656
0.754603,-3.733974212252995
0.755068,-3.726588845654993
0.755534,-3.703593499656672
0.755999,-3.6656595712214846
0.756465,-3.6153047989623865
0.756930,-3.5525291828793772
0.757396,-3.479682612344549
0.757861,-3.3965972381170366
0.758327,-3.305622949568933
0.758792,-3.206424048218509
0.759258,-3.1010147249561304
0.759723,-2.989227130540932
0.760189,-2.872739757381552
0.760655,-2.751888303959716
0.761120,-2.6276798657206073
0.761586,-2.5009536888685435
0.762051,-2.371709773403525
0.762517,-2.2407873655298696
0.762982,-2.1090257114518955
0.763448,-1.9767605096513312
0.763913,-1.8441596093690393
0.764379,-1.712230106050202
0.764844,-1.5809719996948193
0.765310,-1.4510566872663464
0.765775,-1.322484168764782
0.766241,-1.1960936903944457
0.766706,-1.0717174029144734
0.767172,-0.9495231555657281
0.767637,-0.8296787975890745
0.768103,-0.7131914244296941
0.768568,-0.5997253376058594
0.769034,-0.4889448386358434
0.769499,-0.3815213244831006
0.769965,-0.277454795147631
0.770430,-0.17674525062943464
0.770896,-0.07956054016937514
0.771361,0.01376363775082017
0.771827,0.10389868009460593
0.772292,0.19050888838025481
0.772758,0.27309071488517583
0.773223,0.35231555657282365
0.773689,0.42784771496147095
0.774155,0.5000228885328449
0.774620,0.5681696803234914
0.775086,0.6329594872968642
0.775551,0.6940566109712368
0.776017,0.7524681467917906
0.776482,0.8075226977950714
0.776948,0.8592202639810788
0.777413,0.9078965438315404
0.777879,0.9528801403830014
0.778344,0.9948424505989166
0.778810,1.034287022201877
0.779275,1.070710307469291
0.779741,1.1046158541237507
0.780206,1.1356679636835278
0.780672,1.163698786907759
0.781137,1.1902189669642176
0.781603,1.2137178606851302
0.782068,1.2352025635156785
0.782534,1.2540016784924086
0.782999,1.2714579995422293
0.783465,1.286564431219959
0.783930,1.2996566720073244
0.784396,1.310734721904326
0.784861,1.320469977874418
0.785327,1.3278553444724193
0.785792,1.3345693141069657
0.786258,1.3392690928511481
0.786723,1.3426260776684211
0.787189,1.3443045700770577
0.787654,1.3453116655222401
0.788120,1.3453116655222401
0.788586,1.3436331731136035
0.789051,1.341283283741512
0.789517,1.3375906004425115
0.789982,1.332890821698329
0.790448,1.3271839475089646
0.790913,1.3214770733196002
0.791379,1.3144274052033267
0.791844,1.3070420386053254
0.792310,1.2993209735255968
0.792775,1.2902571145189594
0.793241,1.2811932555123215
0.793706,1.2717936980239566
0.794172,1.2613870450904097
0.794637,1.2511482413977264
0.795103,1.2402380407415883
0.795568,1.228992141603723
0.796034,1.217746242465858
0.796499,1.206332494087129
0.796965,1.1949187457084
0.797430,1.1838406958113983
0.797896,1.173098344396124
0.798361,1.1613488975356678
0.798827,1.1848477912565802
0.799292,2.0138551918822003
0.799758,5.056122682536049
0.800223,5.490180819409476
0.800689,5.491691462577248
0.801154,5.4918593118181125
0.801620,5.492530708781567
0.802086,5.492530708781567
0.802551,5.492530708781567
0.803017,5.492530708781567
0.803482,5.492530708781567
0.803948,5.4928664072632944
0.804413,5.492530708781567
0.804879,5.4928664072632944
0.805344,5.4928664072632944
0.805810,5.4928664072632944
0.806275,5.492530708781567
0.806741,5.492530708781567
0.807206,5.493202105745021
0.807672,5.492698558022431
0.808137,5.493202105745021
0.808603,5.493202105745021
0.809068,5.492530708781567
0.809534,5.492530708781567
0.809999,5.4928664072632944
0.810465,5.492530708781567
0.810930,5.4928664072632944
0.811396,5.4928664072632944
0.811861,5.492530708781567
0.812327,5.4928664072632944
0.812792,5.4928664072632944
0.813258,5.4928664072632944
0.813723,5.493202105745021
0.814189,0.10759136339360646
0.814654,-5.172777904936293
0.815120,-5.488838025482566
0.815586,-5.4918593118181125
0.816051,-5.4928664072632944
0.816517,-5.493202105745021
0.816982,-5.493705653467612
0.817448,-5.493705653467612
0.817913,-5.493705653467612
0.818379,-5.49404135194934
0.818844,-5.49404135194934
0.819310,-5.493873502708476
0.819775,-5.49404135194934
0.820241,-5.494377050431067
0.820706,-5.494377050431067
0.821172,-5.494377050431067
0.821637,-5.494377050431067
0.822103,-3.4219424734874493
0.822568,0.5527275501640345
0.823034,2.47191577019913
0.823499,3.135591668574044
0.823965,2.9982909895475696
0.824430,-0.48155947203784233
0.824896,-5.373693446250096
0.825361,-5.491187914854658
0.825827,-5.493202105745021
0.826292,-5.493537804226749
0.826758,-5.493873502708476
0.827223,-5.494209201190204
0.827689,-5.49404135194934
0.828154,-5.49404135194934
0.828620,-5.49404135194934
0.829085,-5.494209201190204
0.829551,-5.494377050431067
0.830017,-5.494209201190204
0.830482,-5.494377050431067
0.830948,-5.494377050431067
0.831413,-5.49454489967193
0.831879,-5.49454489967193
0.832344,-5.49454489967193
0.832810,-5.494377050431067
0.833275,-5.494377050431067
0.833741,-5.494377050431067
0.834206,-5.49454489967193
0.834672,-5.494377050431067
0.835137,-5.49454489967193
0.835603,-5.494377050431067
0.836068,-4.902708476386663
0.836534,-3.4029755092698557
0.836999,-2.0590066376745253
0.837465,-0.8214541847867551
0.837930,0.34358739604791333
0.838396,1.4290684367132065
0.838861,2.4247501335164414
0.839327,3.3269398031586173
0.839792,4.142351415274281
0.840258,4.880216678110933
0.840723,5.47708857862211
0.841189,5.4918593118181125
0.841654,5.492530708781567
0.842120,5.493202105745021
0.842585,5.4928664072632944
0.843051,5.492530708781567
0.843517,5.4918593118181125
0.843982,5.492530708781567
0.844448,5.492530708781567
0.844913,5.493202105745021
0.845379,5.492530708781567
0.845844,5.493202105745021
0.846310,5.4928664072632944
0.846775,5.493202105745021
0.847241,5.493202105745021
0.847706,5.4928664072632944
0.848172,5.493202105745021
0.848637,2.3074235141527426
0.849103,-4.844464789806973
0.849568,-5.488670176241703
0.850034,-5.492195010299839
0.850499,-5.493202105745021
0.850965,-5.493873502708476
0.851430,-5.493873502708476
0.851896,-5.493873502708476
0.852361,-5.49404135194934
0.852827,-0.6336308842603189
0.853292,4.835904478522926
0.853758,5.488838025482566
0.854223,5.491187914854658
0.854689,5.491187914854658
0.855154,5.4918593118181125
0.855620,5.492530708781567
0.856085,5.4918593118181125
0.856551,5.492530708781567
0.857017,5.492530708781567
0.857482,5.492195010299839
0.857948,5.4918593118181125
0.858413,5.492530708781567
0.858879,5.4918593118181125
0.859344,5.492530708781567
0.859810,5.492530708781567
0.860275,5.492530708781567
0.860741,5.4918593118181125
0.861206,5.4918593118181125
0.861672,5.4928664072632944
0.862137,5.492530708781567
0.862603,5.4918593118181125
0.863068,5.492195010299839
0.863534,5.492530708781567
0.863999,5.492530708781567
0.864465,5.492530708781567
0.864930,5.492530708781567
0.865396,5.4918593118181125
0.865861,3.011047531853208
0.866327,0.8820477607385366
0.866792,-0.3063248645761807
0.867258,-1.8075684748607612
0.867723,-3.5765316243228806
0.868189,-4.858396276798657
0.868654,-5.470542458228427
0.869120,-5.491523613336385
0.869585,-5.493034256504157
0.870051,-5.493369954985885
0.870516,-5.493537804226749
0.870982,-5.493873502708476
0.871448,-5.493705653467612
0.871913,-5.49404135194934
0.872379,-5.493873502708476
0.872844,-5.493873502708476
0.873310,-4.87182421606775
0.873775,-3.6621347371633473
0.874241,-2.708079652094301
0.874706,-2.2614328221560998
0.875172,-1.9732356755931941
0.875637,-1.8533913176165406
0.876103,-2.213260090028229
0.876568,-3.0503242542153046
0.877034,-3.932539864194705
0.877499,-4.51967650873579
0.877965,-4.713542381933317
0.878430,-4.749797817959869
0.878896,-4.971862363622491
0.879361,-5.218768596932936
0.879827,-5.4069275959411
0.880292,-5.486823834592203
0.880758,-5.2149080643930725
0.881223,-4.660166323338673
0.881689,-4.154604409857328
0.882154,-3.900816357671473
0.882620,-3.9662775616083006
0.883085,-4.1408407721065075
0.883551,-4.06799420157168
0.884016,-3.792721446555276
0.884482,-3.5532005798428314
0.884948,-3.427649347676814
0.885413,-3.2916914625772487
0.885879,-3.077683680476081
0.886344,-2.749202716105897
0.886810,-2.2976882581826508
0.887275,-1.8063935301747158
0.887741,-1.3093919279774167
0.888206,-0.7999694819562065
0.888672,-0.30330357824063475
0.889137,0.18648050659952697
0.889603,0.7115129320210574
0.890068,1.2276493476768138
0.890534,1.6991378652628368
0.890999,2.1399099717708094
0.891465,2.5967956054016934
0.891930,3.0761730373083087
0.892396,3.5001602197299153
0.892861,3.8600289921416033
0.893327,4.194384679942016
0.893792,4.514641031509879
0.894258,4.7395590142671855
0.894723,4.826840619516288
0.895189,4.8204623483634705
0.895654,4.769436179140918
0.896120,4.676783398184176
0.896585,4.546364538033111
0.897051,4.445151445792325
0.897516,4.361226825360495
0.897982,4.269581139848935
0.898448,4.185320820935378
0.898913,4.134294651712825
0.899379,4.101396200503548
0.899844,4.07722590981918
0.900310,4.010757610437171
0.900775,3.920119020370794
0.901241,3.8848706797894255
0.901706,3.8811779964904245
0.902172,3.854657816433967
0.902637,3.7979247730220487
0.903103,3.7475700007629507
0.903568,3.6364538033112073
0.904034,3.4165712977798117
0.904499,3.1325703822384985
0.904965,2.8683756771190962
0.905430,2.657892729076066
0.905896,2.4712443732356753
0.906361,2.327901121538109
0.906827,2.1718013275349053
0.907292,1.9948882276646065
0.907758,1.8421454184786756
0.908223,1.7300221255817503
0.908689,1.6786602578774699
0.909154,1.685709925993744
0.909620,1.7364003967345694
0.910085,1.8273746852826733
0.910551,1.9722285801480124
0.911016,2.135881589990082
0.911482,2.265796902418555
0.911947,2.3483787289234757
0.912413,2.4984359502555886
0.912879,2.8512550545510034
0.913344,3.2507362478065156
0.913810,3.1990386816205083
0.914275,2.681391622796979
0.914741,2.2013427939269095
0.915206,2.0966048676279847
0.915672,2.386480506599527
0.916137,2.872404058899824
0.916603,3.419928282597085
0.917068,3.9241474021515215
0.917534,4.478721293965056
0.917999,5.486488136110475
0.918465,5.4918593118181125
0.918930,5.492530708781567
0.919396,5.4928664072632944
0.919861,5.493202105745021
0.920327,5.492195010299839
0.920792,5.4928664072632944
0.921258,5.4928664072632944
0.921723,5.4928664072632944
0.922189,5.492530708781567
0.922654,5.493202105745021
0.923120,5.492530708781567
0.923585,5.492530708781567
0.924051,5.4928664072632944
0.924516,5.493202105745021
0.924982,3.8163881895170517
0.925447,2.6463111314564736
0.925913,4.981597619592584
0.926379,5.4918593118181125
0.926844,5.492530708781567
0.927310,4.746440833142596
0.927775,0.36490424963759815
0.928241,-1.4678416113527122
0.928706,-2.1654230563820858
0.929172,-3.9112230106050196
0.929637,-5.480445563439384
0.930103,-5.491691462577248
0.930568,-5.4928664072632944
0.931034,-5.493202105745021
0.931499,-5.493705653467612
0.931965,-5.493873502708476
0.932430,-5.493873502708476
0.932896,-5.49404135194934
0.933361,-5.49404135194934
0.933827,-5.494209201190204
0.934292,-5.494377050431067
0.934758,-5.49404135194934
0.935223,-5.49404135194934
0.935689,-5.49404135194934
0.936154,-5.49404135194934
0.936620,-5.49404135194934
0.937085,-5.494377050431067
0.937551,-5.494209201190204
0.938016,-5.49454489967193
0.938482,-5.49454489967193
0.938947,-5.494377050431067
0.939413,-5.494377050431067
0.939879,-5.494377050431067
0.940344,-5.494209201190204
0.940810,-5.494377050431067
0.941275,-5.494377050431067
0.941741,-5.494209201190204
0.942206,-5.494377050431067
0.942672,-5.494377050431067
0.943137,-5.494377050431067
0.943603,-5.494377050431067
0.944068,-5.494377050431067
0.944534,-5.494377050431067
0.944999,-5.494377050431067
0.945465,-5.494209201190204
0.945930,-5.494209201190204
0.946396,-5.49454489967193
0.946861,-5.494377050431067
0.947327,-5.49454489967193
0.947792,0.6819714656290532
0.948258,5.479774166475929
0.948723,5.490516517891203
0.949189,5.4918593118181125
0.949654,5.492530708781567
0.950120,5.492530708781567
0.950585,5.492530708781567
0.951051,5.492530708781567
0.951516,5.493202105745021
0.951982,5.492530708781567
0.952447,5.4918593118181125
0.952913,5.493202105745021
0.953378,5.492530708781567
0.953844,5.492530708781567
0.954310,5.493034256504157
0.954775,5.492530708781567
0.955241,5.4928664072632944
0.955706,5.493202105745021
0.956172,5.493202105745021
0.956637,5.492530708781567
0.957103,5.492530708781567
0.957568,5.492195010299839
0.958034,5.492530708781567
0.958499,5.492530708781567
0.958965,5.4928664072632944
0.959430,5.492530708781567
0.959896,5.493034256504157
0.960361,5.493202105745021
0.960827,4.488792248416876
0.961292,5.052765697718776
0.961758,5.202487220569162
0.962223,4.719081406881819
0.962689,4.1866636148622876
0.963154,3.8499580376897837
0.963620,3.6037232013427936
0.964085,3.339024948500801
0.964551,3.05468833447776
0.965016,2.78142977035172
0.965482,2.528984512092775
0.965947,2.2906385900663766
0.966413,2.0630350194552527
0.966878,1.8444953078507669
0.967344,1.638040741588464
0.967810,1.4426642252231632
0.968275,1.2578622110322728
0.968741,1.0834668497749294
0.969206,0.9189745937285421
0.969672,0.764217593652247
0.970137,0.6186923018234531
0.970603,0.4823987182421607
0.971068,0.3550011444266422
0.971534,0.2358281834134432
0.971999,0.1253833829251545
0.972465,0.02265964751659419
0.972930,-0.07267872129396505
0.973396,-0.16063172350652322
0.973861,-0.24119935912108034
0.974327,-0.31589227130540926
0.974792,-0.3835355153734646
0.975258,-0.4453040360112916
0.975723,-0.5010299839780269
0.976189,-0.5517204547188524
0.976654,-0.5973754482337682
0.977120,-0.637994964522774
0.977585,-0.6739147020675975
0.978051,-0.7051346608682383
0.978516,-0.7323262378881514
0.978982,-0.7561608300907912
0.979447,-0.7756313420309758
0.979913,-0.7919127183947509
0.980378,-0.8048371099412528
0.980844,-0.8150759136339361
0.981309,-0.821957732509346
0.981775,-0.8266575112535287
0.982241,-0.8290074006256198
0.982706,-0.8286717021438925
0.983172,-0.8268253604943924
0.983637,-0.8229648279545281
0.984103,-0.8172579537651636
0.984568,-0.8105439841306171
0.985034,-0.8014801251239796
0.985499,-0.7917448691538871
0.985965,-0.7803311207751582
0.986430,-0.7682459754329747
0.986896,-0.7554894331273365
0.987361,-0.741390096894789
0.987827,-0.7269550621805143
0.988292,-0.7118486305027847
0.988758,-0.6957351033798734
0.989223,-0.6799572747386892
0.989689,-0.6635080491340505
0.990154,-0.6463874265659572
0.990620,-0.6294346532387274
0.991085,-0.6124818799114976
0.991551,-0.5956969558251316
0.992016,-0.578240634775311
0.992482,-0.5609521629663539
0.992947,-0.5439993896391241
0.993413,-0.5267109178301671
0.993878,-0.510429541466392
0.994344,-0.4936446173800259
0.994809,-0.4771953917753872
0.995275,-0.46091401541161203
0.995741,-0.44496833752956433
0.996206,-0.42919050888838023
0.996672,-0.41374837872892345
0.997137,-0.39897764553292137
0.997603,-0.3848783093003738
0.998068,-0.370443274586099
0.998534,-0.3563439383535515
0.998999,-0.3429159990844587
0.999465,-0.3298237582970931
0.999930,-0.31706721599145493
1.000396,-0.30498207064927135
1.000861,-0.2928969253070878
1.001327,-0.28148317692835884
1.001792,-0.2702372777904936
1.002258,-0.259662775616083
1.002723,-0.24925612268253605
1.003189,-0.23985656519417106
1.003654,-0.23012130922407872
1.004120,-0.22072175173571373
1.004585,-0.21199359121080338
1.005051,-0.20360112916762035
1.005516,-0.19588006408789194
1.005982,-0.18815899900816355
1.006447,-0.1807736324101625
1.006913,-0.1733882658121614
1.007378,-0.16700999465934235
1.007844,-0.16079957274738685
1.008309,-0.15475700007629511
1.008775,-0.1492179751277943
1.009241,-0.14351110093842984
1.009706,-0.1381399252307927
1.010172,-0.13327229724574652
1.010637,-0.12907606622415504
1.011103,-0.12471198596169988
1.011568,-0.12034790569924468
1.012034,-0.11631952391851681
1.012499,-0.11262684061951626
1.012965,-0.10926985580224306
1.013430,-0.1062485694666972
1.013896,-0.10289158464942397
1.014361,-0.09953459983215075
1.014827,-0.0971847104600595
1.015292,-0.09483482108796826
1.015758,-0.09282063019760432
1.016223,-0.09013504234378575
1.016689,-0.08812085145342184
1.017154,-0.0861066605630579
1.017620,-0.0844281681544213
1.018085,-0.08291752498664834
1.018551,-0.08140688181887541
1.019016,-0.07956054016937514
1.019482,-0.0780498970016022
1.019947,-0.07704280155642022
1.020413,-0.07536430914778362
1.020878,-0.07435721370260165
1.021344,-0.07335011825741969
1.021809,-0.07267872129396505
1.022275,-0.07167162584878309
1.022740,-0.07133592736705577
1.023206,-0.0703288319218738
1.023672,-0.06932173647669183
1.024137,-0.06865033951323721
1.024603,-0.06764324406805522
1.025068,-0.06663614862287326
1.025534,-0.06562905317769131
1.025999,-0.06462195773250935
1.026465,-0.06462195773250935
1.026930,0.03440909437705043
1.027396,1.1902189669642176
1.027861,4.523704890516517
1.028327,5.489173723964294
1.028792,5.4918593118181125
1.029258,5.492530708781567
1.029723,5.492530708781567
1.030189,5.4928664072632944
1.030654,5.493202105745021
1.031120,5.493202105745021
1.031585,2.59478141451133
1.032051,2.188586251621271
1.032516,2.959349965667201
1.032982,3.331975280384527
1.033447,3.1715114061188676
1.033913,3.0073548485542076
1.034378,3.2977340352483404
1.034844,3.7210498207064924
1.035309,3.7737544823376816
1.035775,3.8278019378957806
1.036240,4.5169909208819705
1.036706,5.490180819409476
1.037172,5.4918593118181125
1.037637,5.4918593118181125
1.038103,5.4918593118181125
1.038568,5.492530708781567
1.039034,4.663019760433356
1.039499,5.4918593118181125
1.039965,5.4918593118181125
1.040430,5.4918593118181125
1.040896,5.492530708781567
1.041361,5.4928664072632944
1.041827,5.492530708781567
1.042292,5.492530708781567
1.042758,5.492530708781567
1.043223,5.492530708781567
1.043689,5.4918593118181125
1.044154,5.4928664072632944
1.044620,5.493202105745021
1.045085,5.493202105745021
1.045551,5.459632257572289
1.046016,2.428946364538033
1.046482,-4.478049897001602
1.046947,-5.48715953307393
1.047413,-5.4918593118181125
1.047878,-5.4928664072632944
1.048344,-5.493202105745021
1.048809,-5.493705653467612
1.049275,-5.493873502708476
1.049740,-5.493873502708476
1.050206,-5.493873502708476
1.050672,-5.49404135194934
1.051137,-5.494209201190204
1.051603,-5.49404135194934
1.052068,-5.494209201190204
1.052534,-3.2216983291371024
1.052999,2.323201342793927
1.053465,5.4824597543297475
1.053930,5.490516517891203
1.054396,5.491523613336385
1.054861,5.492530708781567
1.055327,5.492530708781567
1.055792,5.4918593118181125
1.056258,5.492530708781567
1.056723,5.4923628595407035
1.057189,5.492530708781567
1.057654,5.4928664072632944
1.058120,1.640054932478828
1.058585,-5.371847104600595
1.059051,-5.490180819409476
1.059516,-5.492698558022431
1.059982,-5.493369954985885
1.060447,-5.493873502708476
1.060913,-5.493873502708476
1.061378,-5.494209201190204
1.061844,-5.49404135194934
1.062309,-5.494209201190204
1.062775,-5.494209201190204
1.063240,-5.494209201190204
1.063706,-5.494209201190204
1.064171,-5.494377050431067
1.064637,-5.494209201190204
1.065103,-5.494377050431067
1.065568,-5.494377050431067
1.066034,-5.494209201190204
1.066499,-5.494377050431067
1.066965,-5.494377050431067
1.067430,-5.494377050431067
1.067896,-5.494377050431067
1.068361,-5.494377050431067
1.068827,-5.494377050431067
1.069292,-5.494377050431067
1.069758,-5.494377050431067
1.070223,-5.49454489967193
1.070689,-5.494377050431067
1.071154,-5.38493934538796
1.071620,-4.056916151674677
1.072085,-2.8416876478217743
1.072551,-1.7011520561532003
1.073016,-0.6289311055161364
1.073482,0.3637293049515526
1.073947,1.2731364919508659
1.074413,2.100633249408713
1.074878,2.8492408636606394
1.075344,3.528023193713283
1.075809,4.1403372243839165
1.076275,4.689539940489815
1.076740,5.17764553292134
1.077206,5.488502327000839
1.077671,5.4918593118181125
1.078137,5.4918593118181125
1.078603,5.4918593118181125
1.079068,5.492530708781567
1.079534,5.492530708781567
1.079999,5.492530708781567
1.080465,5.492530708781567
1.080930,5.492530708781567
1.081396,5.492530708781567
1.081861,5.493202105745021
1.082327,5.4928664072632944
1.082792,5.4928664072632944
1.083258,5.492530708781567
1.083723,5.493202105745021
1.084189,5.492530708781567
1.084654,5.493202105745021
1.085120,5.493202105745021
1.085585,5.492530708781567
1.086051,5.4923628595407035
1.086516,5.492530708781567
1.086982,0.8075226977950714
1.087447,-5.397695887693598
1.087913,-5.490348668650339
1.088378,-5.309742885481041
1.088844,2.355092698558022
1.089309,5.485145342183566
1.089775,5.491187914854658
1.090240,5.4918593118181125
1.090706,5.4918593118181125
1.091171,5.493202105745021
1.091637,5.4928664072632944
1.092103,5.4928664072632944
1.092568,5.4918593118181125
1.093034,5.492530708781567
1.093499,5.492530708781567
1.093965,5.492530708781567
1.094430,5.492530708781567
1.094896,5.492195010299839
1.095361,5.493202105745021
1.095827,5.4928664072632944
1.096292,5.4928664072632944
1.096758,5.492530708781567
1.097223,5.493202105745021
1.097689,5.493202105745021
1.098154,5.493202105745021
1.098620,5.493202105745021
1.099085,5.493202105745021
1.099551,5.493202105745021
1.100016,5.493202105745021
1.100482,2.186572060730907
1.100947,-3.8220950637064166
1.101413,-5.484138246738383
1.101878,-5.491523613336385
1.102344,-5.4928664072632944
1.102809,-5.493202105745021
1.103275,-5.493705653467612
1.103740,-5.493873502708476
1.104206,-5.493873502708476
1.104671,-5.49404135194934
1.105137,-5.494209201190204
1.105602,-5.494209201190204
1.106068,-5.494209201190204
1.106534,-5.494209201190204
1.106999,-5.494209201190204
1.107465,-5.494209201190204
1.107930,-5.494209201190204
1.108396,-5.49404135194934
1.108861,-5.494377050431067
1.109327,-5.494209201190204
1.109792,-5.494377050431067
1.110258,-5.494377050431067
1.110723,-5.494377050431067
1.111189,-5.49454489967193
1.111654,-5.494377050431067
1.112120,-5.494377050431067
1.112585,-5.494377050431067
1.113051,-5.494209201190204
1.113516,-5.494377050431067
1.113982,-5.494377050431067
1.114447,-5.494209201190204
1.114913,-5.494209201190204
1.115378,-5.416495002670329
1.115844,-4.996368352788586
1.116309,-4.709346150911727
1.116775,-4.520012207217517
1.117240,-4.433569848172732
1.117706,-4.356527046616312
1.118171,-4.059098191805905
1.118637,-3.7047684443427173
1.119102,-3.4905928130006867
1.119568,-3.4969710841535053
1.120034,-3.6579385061417558
1.120499,-3.8296482795452813
1.120965,-3.826626993209735
1.121430,-3.5844205386434727
1.121896,-3.298908979934386
1.122361,-3.1191424429694057
1.122827,-2.997283894102388
1.123292,-2.7690089265278095
1.123758,-2.4960860608834974
1.124223,-2.319508659494926
1.124689,-2.1956359197375446
1.125154,-2.022415503166247
1.125620,-1.7699702449073016
1.126085,-1.4134584573128863
1.126551,-0.9280384527351796
1.127016,-0.4103913939116503
1.127482,0.07301441977569237
1.127947,0.5097581445029374
1.128413,0.907560845349813
1.128878,1.2627298390173187
1.129344,1.643915465018692
1.129809,2.0240939955748836
1.130275,2.309941252765698
1.130740,2.530663004501412
1.131206,2.7270466163118945
1.131671,2.8673685816739143
1.132137,2.9801632715342947
1.132602,3.1527122911421377
1.133068,3.277256427862974
1.133534,3.294377050431067
1.133999,3.2587930113679713
1.134465,3.2373083085374224
1.134930,3.2873273823147935
1.135396,3.351445792324711
1.135861,3.385015640497443
1.136327,3.3830014496070797
1.136792,3.4293278400854508
1.137258,3.479682612344549
1.137723,3.4669260700389106
1.138189,3.488410772869459
1.138654,3.636789501792935
1.139120,3.815213244831006
1.139585,3.932539864194705
1.140051,4.07722590981918
1.140516,4.218219272144656
1.140982,4.363912413214313
1.141447,4.5821164263370715
1.141913,4.890287632562752
1.142378,5.281712062256809
1.142844,5.491187914854658
1.143309,5.4918593118181125
1.143775,5.492530708781567
1.144240,5.492530708781567
1.144706,5.492530708781567
1.145171,5.493202105745021
1.145637,5.492530708781567
1.146102,5.492530708781567
1.146568,5.493202105745021
1.147033,5.492530708781567
1.147499,5.493034256504157
1.147965,5.493202105745021
1.148430,5.493202105745021
1.148896,5.493202105745021
1.149361,5.493202105745021
1.149827,5.493202105745021
1.150292,5.493202105745021
1.150758,5.492530708781567
1.151223,5.493202105745021
1.151689,5.4928664072632944
1.152154,5.493202105745021
1.152620,5.493537804226749
1.153085,5.492530708781567
1.153551,5.492530708781567
1.154016,5.493202105745021
1.154482,5.4928664072632944
1.154947,5.492530708781567
1.155413,5.493202105745021
1.155878,5.493202105745021
1.156344,5.492530708781567
1.156809,5.4928664072632944
1.157275,5.4928664072632944
1.157740,5.4928664072632944
1.158206,5.493034256504157
1.158671,5.4928664072632944
1.159137,5.4928664072632944
1.159602,1.8661478599221792
1.160068,-3.115114061188678
1.160533,-4.923689631494621
1.160999,-5.24646372167544
1.161465,-5.489173723964294
1.161930,-5.492195010299839
1.162396,-5.493369954985885
1.162861,-5.493705653467612
1.163327,-5.493705653467612
1.163792,-5.493873502708476
1.164258,-5.493705653467612
1.164723,-5.494209201190204
1.165189,-5.49404135194934
1.165654,-5.494377050431067
1.166120,-5.494209201190204
1.166585,-5.494209201190204
1.167051,-5.494209201190204
1.167516,-5.494209201190204
1.167982,-2.9187304493781947
1.168447,1.25131609063859
1.168913,3.4971389333943694
1.169378,4.175585564965285
1.169844,4.729488059815366
1.170309,5.485816739147021
1.170775,5.491020065613794
1.171240,5.4918593118181125
1.171706,5.4918593118181125
1.172171,5.492530708781567
1.172637,1.5756008239871824
1.173102,-5.3082322423132675
1.173568,-5.490012970168612
1.174033,-5.4923628595407035
1.174499,-5.493034256504157
1.174965,-5.493537804226749
1.175430,-5.493873502708476
1.175896,-5.493873502708476
1.176361,-5.493873502708476
1.176827,-5.49404135194934
1.177292,-5.49404135194934
1.177758,-5.49404135194934
1.178223,-5.494209201190204
1.178689,-5.494209201190204
1.179154,-5.49454489967193
1.179620,-5.494209201190204
1.180085,-5.49454489967193
1.180551,-5.49454489967193
1.181016,-5.494209201190204
1.181482,-5.49454489967193
1.181947,-5.49454489967193
1.182413,-5.49454489967193
1.182878,-5.494377050431067
1.183344,-5.494377050431067
1.183809,-5.494377050431067
1.184275,-5.494377050431067
1.184740,-5.494209201190204
1.185206,-5.466849774929427
1.185671,-4.06614785992218
1.186137,-2.7946898603799495
1.186602,-1.620248722056916
1.187068,-0.5132829785610742
1.187533,0.5201647974364842
1.187999,1.4722056916151676
1.188464,2.3396505683985658
1.188930,3.1265278095674067
1.189396,3.8388799877927826
1.189861,4.482749675745784
1.190327,5.060822461280232
1.190792,5.485145342183566
1.191258,5.490516517891203
1.191723,5.491691462577248
1.192189,5.4918593118181125
1.192654,5.492530708781567
1.193120,5.4928664072632944
1.193585,5.4918593118181125
1.194051,5.4918593118181125
1.194516,5.492530708781567
1.194982,5.492530708781567
1.195447,5.492530708781567
1.195913,5.4928664072632944
1.196378,5.4928664072632944
1.196844,5.493034256504157
1.197309,5.4928664072632944
1.197775,5.4928664072632944
1.198240,5.493202105745021
1.198706,5.493202105745021
1.199171,5.493202105745021
1.199637,5.4928664072632944
1.200102,5.4928664072632944
1.200568,5.493202105745021
1.201033,5.4928664072632944
1.201499,5.493202105745021
1.201964,5.493202105745021
1.202430,5.493034256504157
1.202896,5.08364995803769
1.203361,5.493202105745021
1.203827,5.4928664072632944
1.204292,5.493202105745021
1.204758,5.492530708781567
1.205223,5.128297856107423
1.205689,3.5041886015106427
1.206154,4.139665827420463
1.206620,4.698268101014724
1.207085,4.465293354695963
1.207551,4.005386434729533
1.208016,3.717357137407492
1.208482,3.5545433737697407
1.208947,3.384344243533989
1.209413,3.1775539787899594
1.209878,2.966567483024338
1.210344,2.7691767757686727
1.210809,2.5820248722056913
1.211275,2.399237048905165
1.211740,2.2194705119401847
1.212206,2.0449073014419774
1.212671,1.8760509651331347
1.213137,1.7132372014953843
1.213602,1.5561303120469978
1.214068,1.4043945983062485
1.214533,1.2593728542000457
1.214999,1.1195544365606165
1.215464,0.9854428931105514
1.215930,0.8577096208133058
1.216396,0.7350118257419699
1.216861,0.6181887541008622
1.217327,0.5064011596856641
1.217792,0.4006561379415579
1.218258,0.29994659342336155
1.218723,0.2046082246128023
1.219189,0.11497672999160755
1.219654,0.030045014114595252
1.220120,-0.049851224536507206
1.220585,-0.1253833829251545
1.221051,-0.19621576256961928
1.221516,-0.26234836346990154
1.221982,-0.32445258258945603
1.222447,-0.3820248722056916
1.222913,-0.43556878004119937
1.223378,-0.4852521553368428
1.223844,-0.5312428473334858
1.224309,-0.573708705271992
1.224775,-0.6128175783932249
1.225240,-0.6480659189745938
1.225706,-0.6804608224612801
1.226171,-0.7094987411306934
1.226637,-0.7363546196688792
1.227102,-0.7601892118715189
1.227568,-0.7813382162203403
1.228033,-0.799801632715343
1.228499,-0.8159151598382544
1.228964,-0.8296787975890745
1.229430,-0.8414282444495306
1.229895,-0.8518348973830777
1.230361,-0.8595559624628061
1.230827,-0.8662699320973526
1.231292,-0.8709697108415351
1.231758,-0.8743266956588083
1.232223,-0.8756694895857176
1.232689,-0.8758373388265811
1.233154,-0.8749980926222628
1.233620,-0.8726482032501717
1.234085,-0.8696269169146257
1.234551,-0.865094987411307
1.235016,-0.8600595101853972
1.235482,-0.8540169375143053
1.235947,-0.8474708171206226
1.236413,-0.8400854505226214
1.236878,-0.832364385442893
1.237344,-0.82397192339971
1.237809,-0.8149080643930724
1.238275,-0.8048371099412528
1.238740,-0.7954375524528877
1.239206,-0.7851987487602046
1.239671,-0.7747920958266575
1.240137,-0.7638818951705195
1.240602,-0.752803845273518
1.241068,-0.7415579461356527
1.241533,-0.7303120469977874
1.241999,-0.7188982986190584
1.242464,-0.7071488517586023
1.242930,-0.6957351033798734
1.243395,-0.6843213550011443
1.243861,-0.6729076066224154
1.244327,-0.6614938582436865
1.244792,-0.6500801098649576
1.245258,-0.6386663614862287
1.245723,-0.6275883115892271
1.246189,-0.6165102616922256
1.246654,-0.6050965133134966
1.247120,-0.5943541618982223
1.247585,-0.5839475089646753
1.248051,-0.5735408560311284
1.248516,-0.5629663538567177
1.248982,-0.5527275501640345
1.249447,-0.5428244449530785
1.249913,-0.5325856412603952
1.250378,-0.5233539330128938
1.250844,-0.5139543755245288
1.251309,-0.5050583657587548
1.251775,-0.4963302052338446
1.252240,-0.48709849698634317
1.252706,-0.47887388418402377
1.253171,-0.47014572365911345
1.253637,-0.4620889600976577
1.254102,-0.45403219653620197
1.254568,-0.44631113145647355
1.255033,-0.43859006637674525
1.255499,-0.4315403982604714
1.255964,-0.42449073014419775
1.256430,-0.4171053635461967
1.256895,-0.41055924315251385
1.257361,-0.4036774242771038
1.257827,-0.3984740978103304
1.258292,-0.39293507286182955
1.258758,-0.3877317463950561
1.259223,-0.3828641184100099
1.259689,-0.37514305333028153
1.260154,-0.40502021820401307
1.260620,-1.2352025635156785
1.261085,-3.7284351873044934
1.261551,-5.483131151293202
1.262016,-5.492027161058976
1.262482,-5.493034256504157
1.262947,-5.493369954985885
1.263413,-5.493873502708476
1.263878,-5.493873502708476
1.264344,-5.494209201190204
1.264809,-5.49404135194934
1.265275,-5.494209201190204
1.265740,-5.49404135194934
1.266206,-5.49404135194934
1.266671,-5.494377050431067
1.267137,-5.494209201190204
1.267602,-3.2557717250324254
1.268068,0.8122224765392537
1.268533,5.115037766079194
1.268999,5.489509422446021
1.269464,5.491691462577248
1.269930,5.491691462577248
1.270395,5.492530708781567
1.270861,5.493202105745021
1.271326,5.493202105745021
1.271792,5.493202105745021
1.272258,5.4928664072632944
1.272723,5.493537804226749
1.273189,5.493202105745021
1.273654,5.492530708781567
1.274120,5.493202105745021
1.274585,5.493202105745021
1.275051,5.4928664072632944
1.275516,5.4928664072632944
1.275982,5.492530708781567
1.276447,5.492530708781567
1.276913,5.4928664072632944
1.277378,5.492530708781567
1.277844,5.492530708781567
1.278309,5.492530708781567
1.278775,5.4928664072632944
1.279240,1.0482185091935607
1.279706,-0.5795834287022201
1.280171,1.2996566720073244
1.280637,2.940215152208743
1.281102,2.7025406271457997
1.281568,0.21635767147325857
1.282033,-3.9684596017395286
1.282499,-5.485984588387884
1.282964,-5.492027161058976
1.283430,-5.493034256504157
1.283895,-5.493369954985885
1.284361,-5.493873502708476
1.284826,-5.49404135194934
1.285292,-5.49404135194934
1.285758,-5.493873502708476
1.286223,-5.49404135194934
1.286689,-5.494209201190204
1.287154,-5.494377050431067
1.287620,-5.494209201190204
1.288085,-5.494377050431067
1.288551,-5.494209201190204
1.289016,-5.494209201190204
1.289482,-5.494209201190204
1.289947,-5.494377050431067
1.290413,-5.49454489967193
1.290878,-5.494377050431067
1.291344,-5.494377050431067
1.291809,-5.494377050431067
1.292275,-5.494377050431067
1.292740,-5.494209201190204
1.293206,-4.79662775616083
1.293671,-1.8354314488441292
1.294137,2.522270542458229
1.294602,5.481116960402838
1.295068,5.49085221637293
1.295533,5.491523613336385
1.295999,5.4918593118181125
1.296464,5.4918593118181125
1.296930,5.492195010299839
1.297395,5.4918593118181125
1.297861,0.8439459830624855
1.298326,-3.471290150301366
1.298792,-5.479606317235064
1.299258,-5.491691462577248
1.299723,-5.493034256504157
1.300189,-5.493873502708476
1.300654,-5.493873502708476
1.301120,-5.493705653467612
1.301585,-5.493873502708476
1.302051,-5.49404135194934
1.302516,-5.494209201190204
1.302982,-4.844800488288701
1.303447,-3.9110551613641564
1.303913,-3.0217898832684824
1.304378,-2.180865186541543
1.304844,-1.3983520256351567
1.305309,-0.6749217975127795
1.305775,-0.005874723430228122
1.306240,0.6121461814297703
1.306706,1.1806515602349887
1.307171,1.701823453116655
1.307637,2.1751583123521785
1.308102,2.60350957503624
1.308568,2.9902342259861143
1.309033,3.337346456092164
1.309499,3.6482032501716644
1.309964,3.9234760051880673
1.310430,4.165178912031738
1.310895,4.375326161593041
1.311361,4.557274738689249
1.311826,4.7100175478751805
1.312292,4.836575875486381
1.312757,4.939635309376669
1.313223,5.019195849546043
1.313689,5.077943083848325
1.314154,5.1172198062104215
1.314620,5.138033112077515
1.315085,5.141054398413061
1.315551,5.129304951552605
1.316016,5.102449073014419
1.316482,5.063172350652323
1.316947,5.011139085984588
1.317413,4.948699168383307
1.317878,4.87551689936675
1.318344,4.793606469825283
1.318809,4.703303578240634
1.319275,4.6062867170214385
1.319740,4.502220187685968
1.320206,4.393453879606317
1.320671,4.279316395819029
1.321137,4.160479133287556
1.321602,4.038956282902266
1.322068,3.9150835431448847
1.322533,4.161821927214465
1.322999,5.48900587472343
1.323464,5.4918593118181125
1.323930,5.492530708781567
1.324395,5.492530708781567
1.324861,5.493202105745021
1.325326,5.493202105745021
1.325792,5.493202105745021
1.326257,5.492530708781567
1.326723,5.493202105745021
1.327189,5.493202105745021
1.327654,5.493202105745021
1.328120,5.4928664072632944
1.328585,5.492530708781567
1.329051,5.492530708781567
1.329516,5.492530708781567
1.329982,5.4928664072632944
1.330447,5.493202105745021
1.330913,1.555458915083543
1.331378,-3.8813458457312886
1.331844,-4.060440985732814
1.332309,-2.7141222247653927
1.332775,-2.339314869916838
1.333240,-3.78097199969482
1.333706,-5.483634699015792
1.334171,-5.492027161058976
1.334637,-5.493202105745021
1.335102,-5.493537804226749
1.335568,-5.493705653467612
1.336033,-5.49404135194934
1.336499,-5.494209201190204
1.336964,-5.49404135194934
1.337430,-5.493873502708476
1.337895,-5.49404135194934
1.338361,-5.494377050431067
1.338826,-5.494209201190204
1.339292,-5.494377050431067
1.339757,-5.494377050431067
1.340223,-5.494209201190204
1.340688,-5.494377050431067
1.341154,-5.494377050431067
1.341620,-5.494377050431067
1.342085,-5.494377050431067
1.342551,-5.494377050431067
1.343016,-5.494377050431067
1.343482,-5.494377050431067
1.343947,-5.494377050431067
1.344413,-5.494377050431067
1.344878,-5.494377050431067
1.345344,-5.494377050431067
1.345809,-5.494377050431067
1.346275,-5.494377050431067
1.346740,-5.494209201190204
1.347206,-5.49454489967193
1.347671,-5.494377050431067
1.348137,-5.494377050431067
1.348602,-5.494377050431067
1.349068,-5.494209201190204
1.349533,-5.494377050431067
1.349999,-5.49454489967193
1.350464,-5.494377050431067
1.350930,-5.494377050431067
1.351395,-5.494377050431067
1.351861,-5.49454489967193
1.352326,-5.494377050431067
1.352792,-5.096406500343328
1.353257,-2.8243991760128178
1.353723,-0.3573510337987335
1.354188,2.2040283817807276
1.354654,4.645563439383535
1.355120,5.488502327000839
1.355585,5.491187914854658
1.356051,5.4918593118181125
1.356516,5.4918593118181125
1.356982,5.4918593118181125
1.357447,5.492195010299839
1.357913,5.493034256504157
1.358378,5.4923628595407035
1.358844,5.492530708781567
1.359309,5.492530708781567
1.359775,5.492530708781567
1.360240,5.492530708781567
1.360706,5.492530708781567
1.361171,5.492530708781567
1.361637,5.493202105745021
1.362102,5.493202105745021
1.362568,5.492530708781567
1.363033,5.4928664072632944
1.363499,5.493202105745021
1.363964,5.4928664072632944
1.364430,5.493202105745021
1.364895,5.493202105745021
1.365361,5.493873502708476
1.365826,5.493202105745021
1.366292,5.4928664072632944
1.366757,5.493202105745021
1.367223,5.4928664072632944
1.367688,5.493202105745021
1.368154,5.493202105745021
1.368620,5.493873502708476
1.369085,5.493202105745021
1.369551,5.493202105745021
1.370016,5.493202105745021
1.370482,5.4928664072632944
1.370947,5.4928664072632944
1.371413,5.492530708781567
1.371878,5.4918593118181125
1.372344,5.493202105745021
1.372809,5.492530708781567
1.373275,5.492530708781567
1.373740,5.493034256504157
1.374206,5.493202105745021
1.374671,5.493202105745021
1.375137,5.493202105745021
1.375602,5.493202105745021
1.376068,5.493034256504157
1.376533,5.4928664072632944
1.376999,5.492195010299839
1.377464,5.4928664072632944
1.377930,5.4928664072632944
1.378395,5.492530708781567
1.378861,5.493202105745021
1.379326,5.4928664072632944
1.379792,5.4928664072632944
1.380257,5.492530708781567
1.380723,5.492530708781567
1.381188,5.492530708781567
1.381654,5.493202105745021
1.382119,5.493202105745021
1.382585,5.4928664072632944
1.383051,5.4928664072632944
1.383516,5.492530708781567
1.383982,5.492530708781567
1.384447,5.4928664072632944
1.384913,5.493202105745021
1.385378,5.4928664072632944
1.385844,5.492530708781567
1.386309,5.492530708781567
1.386775,5.493034256504157
1.387240,5.492530708781567
1.387706,5.493202105745021
1.388171,5.493202105745021
1.388637,5.446204318303196
1.389102,5.395178149080644
1.389568,5.371679255359732
1.390033,5.317296101319905
1.390499,5.274326695658807
1.390964,5.2179293507286175
1.391430,5.175631342030975
1.391895,5.117891203173875
1.392361,3.2054169527733274
1.392826,-3.481864652475776
1.393292,-5.4834668497749295
1.393757,-5.4913557640955215
1.394223,-5.492530708781567
1.394688,-5.493369954985885
1.395154,-5.493537804226749
1.395619,-5.493873502708476
1.396085,-5.493705653467612
1.396551,-5.493873502708476
1.397016,-5.494209201190204
1.397482,-5.494209201190204
1.397947,-5.494209201190204
1.398413,-5.494377050431067
1.398878,-5.493873502708476
1.399344,-5.494377050431067
1.399809,-5.49404135194934
1.400275,-5.494209201190204
1.400740,-5.494209201190204
1.401206,-5.494377050431067
1.401671,-5.494377050431067
1.402137,-1.7877622644388491
1.402602,4.8372472724498365
1.403068,5.488502327000839
1.403533,5.491187914854658
1.403999,5.4918593118181125
1.404464,5.4918593118181125
1.404930,5.492195010299839
1.405395,5.492530708781567
1.405861,5.492530708781567
1.406326,5.492530708781567
1.406792,5.492530708781567
1.407257,5.4918593118181125
1.407723,5.492530708781567
1.408188,5.492530708781567
1.408654,5.492530708781567
1.409119,-1.0122987716487373
1.409585,-5.471717402914473
1.410051,-5.491187914854658
1.410516,-5.492698558022431
1.410982,-5.493369954985885
1.411447,-5.493537804226749
1.411913,-5.493873502708476
1.412378,-5.493873502708476
1.412844,-5.493873502708476
1.413309,-5.493873502708476
1.413775,-5.494209201190204
1.414240,-5.494209201190204
1.414706,-5.494209201190204
1.415171,-5.494209201190204
1.415637,-5.494377050431067
1.416102,-5.494209201190204
1.416568,-5.494209201190204
1.417033,-5.494209201190204
1.417499,-5.494209201190204
1.417964,-5.494209201190204
1.418430,-5.494209201190204
1.418895,-5.494209201190204
1.419361,-5.49454489967193
1.419826,-4.419134813458457
1.420292,3.4756542305638205
1.420757,5.486488136110475
1.421223,5.490516517891203
1.421688,5.491523613336385
1.422154,5.492530708781567
1.422619,5.492530708781567
1.423085,5.492530708781567
1.423550,5.492530708781567
1.424016,5.492195010299839
1.424482,5.4928664072632944
1.424947,5.4928664072632944
1.425413,5.493202105745021
1.425878,5.493202105745021
1.426344,5.492530708781567
1.426809,5.4928664072632944
1.427275,5.4928664072632944
1.427740,5.493202105745021
1.428206,5.493202105745021
1.428671,5.4928664072632944
1.429137,5.492530708781567
1.429602,5.4923628595407035
1.430068,5.492530708781567
1.430533,5.492530708781567
1.430999,5.492530708781567
1.431464,5.4918593118181125
1.431930,5.492530708781567
1.432395,5.4918593118181125
1.432861,5.493202105745021
1.433326,5.4928664072632944
1.433792,3.8361943999389636
1.434257,4.442465857938506
1.434723,5.49085221637293
1.435188,5.492530708781567
1.435654,5.493202105745021
1.436119,4.436758983749141
1.436585,2.2119172961013196
1.437050,2.6048523689631495
1.437516,3.3037766079194317
1.437982,3.199542229343099
1.438447,2.741145952544442
1.438913,2.4182040131227587
1.439378,2.2500190737773713
1.439844,2.094254978255894
1.440309,1.9022354467078662
1.440775,1.7011520561532003
1.441240,1.513496604867628
1.441706,1.3385976958876935
1.442171,1.1690699626153962
1.442637,1.0032349126420994
1.443102,0.8437781338216219
1.443568,0.6906996261539635
1.444033,0.5446707866025788
1.444499,0.40401312275883117
1.444964,0.2704051270313573
1.445430,0.14267185473411154
1.445895,0.021149004348821242
1.446361,-0.09483482108796826
1.446826,-0.20527962157625693
1.447292,-0.30867475394827193
1.447757,-0.40703440909437705
1.448223,-0.4996871900511177
1.448688,-0.5869687953002212
1.449154,-0.6685435263599604
1.449619,-0.7455863279163805
1.450085,-0.817593652246891
1.450550,-0.8850690470740824
1.451016,-0.9470054169527733
1.451482,-1.0047455558098726
1.451947,-1.057953765163653
1.452413,-1.106797894254978
1.452878,-1.1522850385290302
1.453344,-1.1934081025406271
1.453809,-1.2308384832532233
1.454275,-1.2647440299076829
1.454740,-1.2954604409857327
1.455206,-1.3228198672465095
1.455671,-1.3466544594491492
1.456137,-1.368139162279698
1.456602,-1.386770428015564
1.457068,-1.4027161058976119
1.457533,-1.4158083466849776
1.457999,-1.4268863965819791
1.458464,-1.4354467078660258
1.458930,-1.4423285267414356
1.459395,-1.4463569085221637
1.459861,-1.448706797894255
1.460326,-1.449713893339437
1.460792,-1.4490424963759823
1.461257,-1.4466926070038908
1.461723,-1.4429999237048905
1.462188,-1.4379644464789807
1.462654,-1.4315861753261614
1.463119,-1.4238651102464333
1.463585,-1.416144045166705
1.464050,-1.4067444876783397
1.464516,-1.39667353322652
1.464981,-1.3855954833295185
1.465447,-1.3738460364690623
1.465913,-1.3614251926451515
1.466378,-1.3483329518577858
1.466844,-1.3345693141069657
1.467309,-1.3208056763561453
1.467775,-1.306706340123598
1.468240,-1.291935606927596
1.468706,-1.276493476768139
1.469171,-1.2612191958495458
1.469637,-1.2459449149309527
1.470102,-1.2301670862897687
1.470568,-1.2148928053711758
1.471033,-1.198947127489128
1.471499,-1.1833371480888075
1.471964,-1.1670557717250323
1.472430,-1.151445792324712
1.472895,-1.1355001144426644
1.473361,-1.1195544365606165
1.473826,-1.1041123064011593
1.474292,-1.0890058747234301
1.474757,-1.0732280460822459
1.475223,-1.057953765163653
1.475688,-1.0428473334859234
1.476154,-1.027740901808194
1.476619,-1.0128023193713283
1.477085,-0.9985351338979174
1.477550,-0.9844357976653696
1.478016,-0.9703364614328222
1.478481,-0.9564049744411383
1.478947,-0.9424734874494545
1.479413,-0.9290455481803617
1.479878,-0.9162890058747234
1.480344,-0.9035324635690852
1.480809,-0.890775921263447
1.481275,-0.8776836804760814
1.481740,-0.8655985351338977
1.482206,-0.8541847867551691
1.482671,-0.8422674906538489
1.483137,-0.8308537422751202
1.483602,-0.8192721446555274
1.484068,-0.8085297932402532
1.484533,-0.797787441824979
1.484999,-0.787380788891432
1.485464,-0.7769741359578851
1.485930,-0.7672388799877927
1.486395,-0.7571679255359731
1.486861,-0.7477683680476082
1.487326,-0.7382009613183794
1.487792,-0.7293049515526054
1.488257,-0.7205767910276951
1.488723,-0.7113450827801938
1.489188,-0.702784771496147
1.489654,-0.6947280079346914
1.490119,-0.6863355458915084
1.490585,-0.6782787823300527
1.491050,-0.6705577172503242
1.491516,-0.6630045014114595
1.491981,-0.6557869840543221
1.492447,-0.6484016174563211
1.492913,-0.6411841000991837
1.493378,-0.6343022812237735
1.493844,-0.6279240100709544
1.494309,-0.620706492713817
1.494775,-0.6141603723201342
1.495240,-0.6077821011673151
1.495706,-0.6017395284962234
1.496171,-0.5953612573434042
1.496637,-0.5893186846723125
1.497102,-0.5834439612420843
1.497568,-0.5775692378118562
1.498033,-0.5718623636224918
1.498499,-0.566323338673991
1.498964,-0.5607843137254901
1.499430,-0.5554131380178531
1.499895,-0.5495384145876249
1.500361,-0.5441672388799876
1.500826,-0.5389639124132143
1.501292,-0.5342641336690318
1.501757,-0.529228656443122
1.502223,-0.5245288776989395
1.502688,-0.519829098954757
1.503154,-0.5144579232471199
1.503619,-0.5100938429846646
1.504085,-0.5067368581673914
1.504550,-0.5032120241092546
1.505016,-0.5265430685893033
1.505481,-1.3834134431982907
1.505947,-4.107774471656366
1.506412,-5.486488136110475
1.506878,-5.492195010299839
1.507344,-5.493202105745021
1.507809,-5.493537804226749
1.508275,-5.493705653467612
1.508740,-5.493873502708476
1.509206,-5.493873502708476
1.509671,-5.494209201190204
1.510137,-5.494209201190204
1.510602,-5.494209201190204
1.511068,-5.49404135194934
1.511533,-5.49404135194934
1.511999,-5.494209201190204
1.512464,-5.494209201190204
1.512930,-5.494209201190204
1.513395,-3.3732661936369874
1.513861,0.5537346456092164
1.514326,3.183596551461051
1.514792,5.451239795529106
1.515257,5.490516517891203
1.515723,5.491523613336385
1.516188,5.4918593118181125
1.516654,5.4918593118181125
1.517119,5.492530708781567
1.517585,5.4918593118181125
1.518050,5.4918593118181125
1.518516,5.492530708781567
1.518981,5.4928664072632944
1.519447,5.492530708781567
1.519912,5.4928664072632944
1.520378,5.493202105745021
1.520844,5.493202105745021
1.521309,5.492530708781567
1.521775,5.492530708781567
1.522240,5.4928664072632944
1.522706,5.4928664072632944
1.523171,5.4928664072632944
1.523637,5.4928664072632944
1.524102,5.4928664072632944
1.524568,5.492530708781567
1.525033,5.492530708781567
1.525499,5.493202105745021
1.525964,5.4928664072632944
1.526430,5.492195010299839
1.526895,5.4928664072632944
1.527361,5.493202105745021
1.527826,5.492530708781567
1.528292,5.492530708781567
1.528757,4.947692072938124
1.529223,2.2560616464484626
1.529688,2.0192263675898374
1.530154,2.1244678416113527
1.530619,1.5621728847180896
1.531085,0.7459220263981079
1.531550,0.1032272831311513
1.532016,-0.36137941557946135
1.532481,-0.7816739147020676
1.532947,-1.2014648661020826
1.533412,-1.5967498283360035
1.533878,-1.9485618371862365
1.534344,-2.259418631265736
1.534809,-2.538719768062867
1.535275,-2.789486533913176
1.535740,-3.01205462729839
1.536206,-3.2069275959411
1.536671,-3.3762874799725333
1.537137,-3.5214770733196
1.537602,-3.6438391699092088
1.538068,-3.744884412909133
1.538533,-3.826626993209735
1.538999,-3.889402609292744
1.539464,-3.9350576028076594
1.539930,-3.964263370717937
1.540395,-3.978530556191348
1.540861,-3.9793698023956665
1.541326,-3.9669489585717557
1.541792,-3.9432822156099796
1.542257,-3.908705271992065
1.542723,-3.8640573739223316
1.543188,-3.8110170138094146
1.543654,-3.7497520408941787
1.544119,-3.6811017013809417
1.544585,-3.6065766384374762
1.545050,-3.5261768520637826
1.545516,-3.440405889982452
1.545981,-3.350774395361257
1.546447,-3.258121614404516
1.546912,-3.1617761501487758
1.547378,-3.0625772487983522
1.547843,-2.9606927595941097
1.548309,-2.8559548332951854
1.548775,-2.748195620660715
1.549240,-2.6392614633401994
1.549706,-2.5810177767605094
1.550171,-3.019439993896391
1.550637,-4.237857633325704
1.551102,-5.472724498359654
1.551568,-5.4918593118181125
1.552033,-5.493202105745021
1.552499,-5.493537804226749
1.552964,-5.493873502708476
1.553430,-5.49404135194934
1.553895,-5.49404135194934
1.554361,-5.49404135194934
1.554826,-5.49404135194934
1.555292,-5.49404135194934
1.555757,-5.494377050431067
1.556223,-5.494377050431067
1.556688,-5.494377050431067
1.557154,-5.49454489967193
1.557619,-5.494377050431067
1.558085,-5.494377050431067
1.558550,-5.494377050431067
1.559016,-5.49454489967193
1.559481,-5.494377050431067
1.559947,-5.494377050431067
1.560412,-5.49454489967193
1.560878,-5.494377050431067
1.561343,-5.494377050431067
1.561809,-5.494377050431067
1.562275,-5.494209201190204
1.562740,-5.494209201190204
1.563206,-5.494209201190204
1.563671,-5.494209201190204
1.564137,-5.494377050431067
1.564602,-5.494209201190204
1.565068,-5.494377050431067
1.565533,-5.458960860608835
1.565999,-4.859067673762112
1.566464,-4.253635461966888
1.566930,-3.6537422751201643
1.567395,-3.0650949874113067
1.567861,-2.4871900511177225
1.568326,-1.9139848935683224
1.568792,-1.3543755245288778
1.569257,-0.8233005264362555
1.569723,-0.31371023117418173
1.570188,0.18178072785534446
1.570654,0.6616617074845501
1.571119,1.123750667582208
1.571585,1.5692225528343633
1.572050,1.9844815747310598
1.572516,2.36919203479057
1.572981,2.734767681391623
1.573447,3.0842298008697644
1.573912,3.4130464637216753
1.574378,3.7247425040054933
1.574843,4.015121690699627
1.575309,4.275288014038299
1.575775,4.513633936064697
1.576240,4.739223315785458
1.576706,4.950713359273671
1.577171,5.149950408178836
1.577637,5.3392843518730455
1.578102,5.487830930037385
1.578568,5.4918593118181125
1.579033,5.4918593118181125
1.579499,5.492530708781567
1.579964,5.492530708781567
1.580430,5.4928664072632944
1.580895,5.4928664072632944
1.581361,5.493202105745021
1.581826,5.492530708781567
1.582292,5.4928664072632944
1.582757,5.4928664072632944
1.583223,5.4928664072632944
1.583688,5.492530708781567
1.584154,5.4928664072632944
1.584619,5.493202105745021
1.585085,5.492530708781567
1.585550,5.493034256504157
1.586016,5.493202105745021
1.586481,5.493034256504157
1.586947,5.492530708781567
1.587412,5.493202105745021
1.587878,5.492530708781567
1.588343,5.492530708781567
1.588809,5.492530708781567
1.589274,5.492530708781567
1.589740,5.492530708781567
1.590206,5.493202105745021
1.590671,5.493202105745021
1.591137,5.492530708781567
1.591602,5.493202105745021
1.592068,5.493202105745021
1.592533,5.493202105745021
1.592999,5.493202105745021
1.593464,5.493202105745021
1.593930,5.493202105745021
1.594395,5.368322270542459
1.594861,5.1991302357518885
1.595326,5.0358129243915455
1.595792,4.872831311512931
1.596257,4.692896925307088
1.596723,4.508934157320515
1.597188,4.332692454413673
1.597654,4.167193102922102
1.598119,4.011764705882354
1.598585,3.8677500572213317
1.599050,3.7247425040054933
1.599516,3.583413443198291
1.599981,3.453498130769818
1.600447,3.336003662165255
1.600912,3.227740901808194
1.601378,3.1325703822384985
1.601843,3.045288776989395
1.602309,2.951628900587472
1.602774,2.857297627222095
1.603240,2.7753871976806286
1.603706,2.7075761043717095
1.604171,2.6552071412222475
1.604637,2.6176089112687873
1.605102,2.577660791943236
1.605568,2.5276417181658655
1.606033,2.4796368352788583
1.606499,2.440360112916762
1.606964,2.405783169298848
1.607430,2.3675135423819333
1.607895,2.3211871519035627
1.608361,2.2698252841992823
1.608826,2.2144350347142745
1.609292,2.14679179064622
1.609757,2.0583352407110707
1.610223,1.9621576256961928
1.610688,1.8669871061264975
1.611154,1.770977340352483
1.611619,1.673289082169833
1.612085,1.5759365224689097
1.612550,1.4685130083161668
1.613016,1.35034714274815
1.613481,1.2271457999542228
1.613947,1.0989089799343863
1.614412,0.9653009842069123
1.614878,0.832364385442893
1.615343,0.703791866941329
1.615809,0.5691767757686733
1.616274,0.43120469977874415
1.616740,0.3002822919050888
1.617206,0.18413061722743573
1.617671,0.0844281681544213
1.618137,0.0011749446860456242
1.618602,-0.07704280155642022
1.619068,-0.14485389486533912
1.619533,-0.1915159838254368
1.619999,-0.22005035477225907
1.620464,-0.23784237430380706
1.620930,-0.2452277409018082
1.621395,-0.2438849469748989
1.621861,-0.23263904783703362
1.622326,-0.20695811398489355
1.622792,-0.17607385366598
1.623257,-0.1512321660181582
1.623723,-0.11866941329060808
1.624188,-0.06663614862287326
1.624654,0.0035248340581368735
1.625119,0.0800640878919661
1.625585,0.15492484931715875
1.626050,0.22072175173571373
1.626516,0.2782940413519493
1.626981,0.33452353704127563
1.627447,0.3838712138551919
1.627912,0.42465857938506135
1.628378,0.4607461661707485
1.628843,0.47853818570229645
1.629309,0.46443884946974895
1.629774,0.435233081559472
1.630240,0.40468451972228575
1.630705,0.36977187762264435
1.631171,0.3274738689250019
1.631637,0.2818188754100862
1.632102,0.22525368123903253
1.632568,0.1552605477988861
1.633033,0.0797283894102388
1.633499,-0.0015106431677729458
1.633964,-0.092484931715877
1.634430,-0.1977264057373922
1.634895,-0.31068894483863574
1.635361,-0.41777676050965123
1.635826,-0.5158007171740291
1.636292,-0.6188601510643167
1.636757,-0.7365224689097429
1.637223,-0.8456244754711221
1.637688,-0.9320668345159074
1.638154,-1.000549324788281
1.638619,-1.0478828107118332
1.639085,-1.0626535439078355
1.639550,-1.066346227206836
1.640016,-1.0690318150606544
1.640481,-1.059967956054017
1.640947,-1.0316014343480582
1.641412,-0.986785687037461
1.641878,-0.9290455481803617
1.642343,-0.8649271381704432
1.642809,-0.8075226977950714
1.643274,-0.744411383230335
1.643740,-0.6625009536888684
1.644205,-0.561791409170672
1.644671,-0.44765392538338294
1.645137,-0.33183794918745707
1.645602,-0.23247119859617
1.646068,-0.14384679942015716
1.646533,-0.054047455558098714
1.646999,0.03138780804150454
1.647464,0.10389868009460593
1.647930,0.16197451743343252
1.648395,0.2025940337224384
1.648861,0.21937895780880443
1.649326,0.22273594262607763
1.649792,0.2150148775463493
1.650257,0.18547341115434499
1.650723,0.14216830701152056
1.651188,0.09382772564278628
1.651654,0.04145876249332417
1.652119,-0.013931486991683832
1.652585,-0.06764324406805522
1.653050,-0.13579003585870145
1.653516,-0.22676432440680552
1.653981,-0.32814526588845655
1.654447,-0.4197909514000152
1.654912,-0.40199893186846725
1.655378,-0.18178072785534446
1.655843,0.13579003585870145
1.656309,0.41811245899137867
1.656774,0.6460517280842297
1.657240,0.8498207064927138
1.657705,1.039154650186923
1.658171,1.2076752880140382
1.658637,1.3587396047913327
1.659102,1.497047379262989
1.659568,1.6199130235751888
1.660033,1.724483100633249
1.660499,1.812603952086671
1.660964,1.8878004119935914
1.661430,1.9527580682078278
1.661895,2.0019378957808804
1.662361,2.036179140917067
1.662826,2.0556496528572517
1.663292,2.067734798199435
1.663757,2.0798199435416187
1.664223,2.092576485847257
1.664688,2.0992904554818037
1.665154,2.0905622949568934
1.665619,2.066392004272526
1.666085,2.0355077439536124
1.666550,1.9995880064087894
1.667016,1.9505760280766002
1.667481,1.8831006332494087
1.667947,1.802365148393988
1.668412,1.704844739452201
1.668878,1.5799649042496375
1.669343,1.432928969253071
1.669809,1.274143587396048
1.670274,1.105455100328069
1.670740,0.9228351262684061
1.671205,0.7195696955825132
1.671671,0.49431601434348055
1.672136,0.24489204242008086
1.672602,-0.032730601968413826
1.673068,-0.3375448233768215
1.673533,-0.6625009536888684
1.673999,-0.9981994354161898
1.674464,-1.3295338368810559
1.674930,-1.6392156862745098
1.675395,-1.918348973830777
1.675861,-2.172472724498359
1.676326,-2.404272526131075
1.676792,-2.606530861371786
1.677257,-2.7753871976806286
1.677723,-2.915205615320058
1.678188,-3.02900740062562
1.678654,-3.113267719539177
1.679119,-3.1656366826886395
1.679585,-3.1938353551537344
1.680050,-3.2027313649195084
1.680516,-3.189639124132143
1.680981,-3.1540550850690465
1.681447,-3.098329137102312
1.681912,-3.026993209735256
1.682378,-2.944075684748608
1.682843,-2.8537727931639583
1.683309,-2.75390249485008
1.683774,-2.637247272449836
1.684240,-2.4984359502555886
1.684705,-2.3493858243686576
1.685171,-2.210406652933547
1.685636,-2.0821698329137104
1.686102,-1.9574578469520103
1.686568,-1.8401312275883115
1.687033,-1.7405966277561609
1.687499,-1.6575112535286487
1.687964,-1.5860074769207293
1.688430,-1.5333028152895398
1.688895,-1.503089951934081
1.689361,-1.4849622339208055
1.689826,-1.4710307469291217
1.690292,-1.4597848477912565
1.690757,-1.456595712214847
1.691223,-1.460456244754711
1.691688,-1.4668345159075302
1.692154,-1.4764019226367588
1.692619,-1.488654917219806
1.693085,-1.5094682230869
1.693550,-1.5423666742961775
1.694016,-1.5870145723659113
1.694481,-1.6375371938658732
1.694947,-1.6811779964904245
1.695412,-1.7110551613641565
1.695878,-1.7300221255817503
1.696343,-1.7347219043259328
1.696809,-1.7165941863126573
1.697274,-1.675135423819333
1.697740,-1.624277103837644
1.698205,-1.5697261005569543
1.698671,-1.5037613488975354
1.699136,-1.423529411764706
1.699602,-1.3370870527199208
1.700067,-1.2491340505073625
1.700533,-1.1583276112001222
1.700999,-1.0629892423895626
1.701464,-0.9647974364843214
1.701930,-0.868955519951171
1.702395,-0.7783169298847943
1.702861,-0.6908674753948271
1.703326,-0.5992217898832686
1.703792,-0.5043869687953002
1.704257,-0.40703440909437705
1.704723,-0.31085679407949945
1.705188,-0.22575722896162354
1.705654,-0.14720378423743039
1.706119,-0.0703288319218738
1.706585,0.0021820401312275884
1.707050,0.06294346532387274
1.707516,0.10859845883878842
1.707981,0.14082551308461125
1.708447,0.15274280918593117
1.708912,0.14418249790188448
1.709378,0.1240405889982452
1.709843,0.09903105210955977
1.710309,0.06764324406805522
1.710774,0.027023727779049357
1.711240,-0.019974059662775615
1.711705,-0.07049668116273747
1.712171,-0.12269779507133592
1.712636,-0.17607385366598
1.713102,-0.23263904783703362
1.713567,-0.29793240253299763
1.714033,-0.37447165636682683
1.714499,-0.4604104676890211
1.714964,-0.5456778820477607
1.715430,-0.6240634775310901
1.715895,-0.688014038300145
1.716361,-0.7256122682536049
1.716826,-0.7313191424429694
1.717292,-0.7177233539330129
1.717757,-0.6985885404745555
1.718223,-0.6759288929579614
1.718688,-0.6440375371938658
1.719154,-0.6091248950942245
1.719619,-0.5748836499580376
1.720085,-0.5361104753185321
1.720550,-0.48659494926375213
1.721016,-0.43053330281528956
1.721481,-0.37145037003128095
1.721947,-0.31236743724727245
1.722412,-0.2509346150911726
1.722878,-0.18278782330052643
1.723343,-0.10054169527733271
1.723809,-0.003189135576409552
1.724274,0.10691996643015184
1.724740,0.21770046540016783
1.725205,0.323445487144274
1.725671,0.4266727702754254
1.726136,0.5302357518883039
1.726602,0.6321202410925459
1.727067,0.7262836652170594
1.727533,0.8147402151522086
1.727999,0.8964827954528115
1.728464,0.9622796978713664
1.728930,1.010955977721828
1.729395,1.0492256046387427
1.729861,1.0817883573662928
1.730326,1.106797894254978
1.730792,1.1281147478446631
1.731257,1.1490959029526207
1.731723,1.1683985656519418
1.732188,1.1858548867017624
1.732654,1.2026398107881284
1.733119,1.2150606546120393
1.733585,1.2227817196917676
1.734050,1.2242923628595406
1.734516,1.2258030060273135
1.734981,1.239902342259861
1.735447,1.2623941405355916
1.735912,1.2842145418478674
1.736378,1.3053635461966888
1.736843,1.3302052338445107
1.737309,1.3651178759441518
1.737774,1.4137941557946134
1.738240,1.4794232089723047
1.738705,1.5641870756084535
1.739171,1.6601968413824673
1.739636,1.7666132600900284
1.740102,1.882093537804227
1.740567,2.0042877851529712
1.741033,2.1318532082093538
1.741498,2.2614328221560998
1.741964,2.388662546730754
1.742430,2.5152208743419546
1.742895,2.639765011062791
1.743361,2.7659876401922636
1.743826,2.8935530632486457
1.744292,3.0216220340276188
1.744757,3.148012512397955
1.745223,3.2769207293812466
1.745688,3.4150606546120397
1.746154,3.5672999160753793
1.746619,3.733806363012131
1.747085,3.908705271992065
1.747550,4.093339436942092
1.748016,4.281330586709392
1.748481,4.467978942549782
1.748947,4.65261310749981
1.749412,4.841947051194018
1.749878,5.039337758449683
1.750343,5.279530022125582
1.750809,5.491187914854658
1.751274,5.4918593118181125
1.751740,5.492530708781567
1.752205,5.492530708781567
1.752671,5.492530708781567
1.753136,5.4928664072632944
1.753602,5.493202105745021
1.754067,5.4928664072632944
1.754533,5.492530708781567
1.754998,5.493202105745021
1.755464,5.4928664072632944
1.755930,5.492530708781567
1.756395,5.492530708781567
1.756861,5.493202105745021
1.757326,5.492530708781567
1.757792,5.493202105745021
1.758257,5.492530708781567
1.758723,5.447547112230106
1.759188,5.417669947356374
1.759654,5.371007858396276
1.760119,5.340123598077363
1.760585,5.289097428854809
1.761050,5.254184786755169
1.761516,5.206851300831617
1.761981,5.169588769359884
1.762447,5.125947966735332
1.762912,5.081635767147326
1.763378,5.032623788815137
1.763843,4.997039749752041
1.764309,4.944670786602578
1.764774,4.904386968795301
1.765240,4.860410467689021
1.765705,4.83791866941329
1.766171,4.817441062027924
1.766636,4.753322652018006
1.767102,4.699275196459906
1.767567,4.696925307087816
1.768033,4.634485389486533
1.768498,4.621728847180895
1.768964,4.567345693141069
1.769430,4.542504005493248
1.769895,4.5169909208819705
1.770361,-0.09382772564278628
1.770826,-3.8504615854123747
1.771292,-5.378225375753414
1.771757,-5.490180819409476
1.772223,-5.492530708781567
1.772688,-5.493034256504157
1.773154,-5.493537804226749
1.773619,-5.493705653467612
1.774085,-5.493873502708476
1.774550,-5.49404135194934
1.775016,-5.49404135194934
1.775481,-5.49404135194934
1.775947,-5.49404135194934
1.776412,-5.494377050431067
1.776878,-5.494377050431067
1.777343,-5.494209201190204
1.777809,-5.494209201190204
1.778274,-5.494377050431067
1.778740,-5.494209201190204
1.779205,-5.494712748912795
1.779671,-5.494377050431067
1.780136,-5.494209201190204
1.780602,-5.494377050431067
1.781067,-5.494377050431067
1.781533,-5.494377050431067
1.781998,-5.49454489967193
1.782464,-5.49454489967193
1.782929,-5.494377050431067
1.783395,-5.49454489967193
1.783861,-5.494377050431067
1.784326,-5.49454489967193
1.784792,-5.49454489967193
1.785257,-5.494377050431067
1.785723,-5.494377050431067
1.786188,-5.49454489967193
1.786654,-5.49454489967193
1.787119,-5.494377050431067
1.787585,-5.494377050431067
1.788050,-5.49454489967193
1.788516,-5.494209201190204
1.788981,-5.494209201190204
1.789447,-5.494209201190204
1.789912,-5.49454489967193
1.790378,-3.597512779430838
1.790843,-1.2244602121004045
1.791309,0.8790264744029908
1.791774,2.783443961242084
1.792240,4.5284046692607
1.792705,5.486488136110475
1.793171,5.491523613336385
1.793636,5.4918593118181125
1.794102,5.4918593118181125
1.794567,5.4918593118181125
1.795033,5.492530708781567
1.795498,5.4918593118181125
1.795964,5.4918593118181125
1.796429,5.492530708781567
1.796895,5.492195010299839
1.797361,5.4928664072632944
1.797826,5.4928664072632944
1.798292,5.493034256504157
1.798757,5.4928664072632944
1.799223,5.493202105745021
1.799688,5.493034256504157
1.800154,5.493202105745021
1.800619,5.493202105745021
1.801085,5.4928664072632944
1.801550,5.4928664072632944
1.802016,5.4928664072632944
1.802481,5.493202105745021
1.802947,5.492530708781567
1.803412,5.493873502708476
1.803878,5.493202105745021
1.804343,5.492530708781567
1.804809,5.493202105745021
1.805274,5.493202105745021
1.805740,5.493202105745021
1.806205,5.493202105745021
1.806671,5.493202105745021
1.807136,5.493034256504157
1.807602,5.492195010299839
1.808067,5.492530708781567
1.808533,5.492530708781567
1.808998,5.492530708781567
1.809464,5.4928664072632944
1.809929,5.492530708781567
1.810395,5.492530708781567
1.810861,5.492530708781567
1.811326,5.492530708781567
1.811792,5.492530708781567
1.812257,5.4928664072632944
1.812723,5.492530708781567
1.813188,5.492530708781567
1.813654,5.492530708781567
1.814119,5.4928664072632944
1.814585,5.4928664072632944
1.815050,5.4918593118181125
1.815516,5.4686961165789265
1.815981,5.407263294422828
1.816447,5.35556572823682
1.816912,5.309910734721904
1.817378,5.267948424505989
1.817843,5.23404287785153
1.818309,4.137651636530098
1.818774,2.3285725185015638
1.819240,2.734431982909895
1.819705,3.1634546425574124
1.820171,2.8524299992370485
1.820636,2.327397573815518
1.821102,1.980453192950332
1.821567,1.7659418631265733
1.822033,1.5527733272297246
1.822498,1.3103990234225986
1.822964,1.0697032120241092
1.823429,0.8481422140840771
1.823895,0.6410162508583199
1.824360,0.44362554360265505
1.824826,0.2541237506675822
1.825292,0.07435721370260165
1.825757,-0.0955062180514229
1.826223,-0.25597009231708245
1.826688,-0.4077058060578317
1.827154,-0.5503776607919432
1.827619,-0.6843213550011443
1.828085,-0.8112153810940719
1.828550,-0.92988479438468
1.829016,-1.0404974441138324
1.829481,-1.1438925764858472
1.829947,-1.2397344930189973
1.830412,-1.3288624399176012
1.830878,-1.4114442664225222
1.831343,-1.4883192187380787
1.831809,-1.5589837491416798
1.832274,-1.6236057068741891
1.832740,-1.6830243381399252
1.833205,-1.7370717936980238
1.833671,-1.7860837720302125
1.834136,-1.8303959716182194
1.834602,-1.8703440909437707
1.835067,-1.9052567330434116
1.835533,-1.9359731441214616
1.835998,-1.9626611734187838
1.836464,-1.9861600671396964
1.836929,-2.006469825284199
1.837395,-2.0237582970931562
1.837860,-2.0370183871213854
1.838326,-2.047592889295796
1.838792,-2.0563210498207063
1.839257,-2.0623636224917985
1.839723,-2.0658884565499345
1.840188,-2.0670634012359805
1.840654,-2.066392004272526
1.841119,-2.0630350194552527
1.841585,-2.058838788433661
1.842050,-2.052460517280842
1.842516,-2.04457160296025
1.842981,-2.0358434424353393
1.843447,-2.025436789501793
1.843912,-2.0133516441596093
1.844378,-2.000930800335698
1.844843,-1.987502861066605
1.845309,-1.973067826352331
1.845774,-1.9579613946746015
1.846240,-1.9418478675516895
1.846705,-1.9247272449835966
1.847171,-1.9071030746929123
1.847636,-1.8891432059205004
1.848102,-1.8703440909437707
1.848567,-1.851880674448768
1.849033,-1.8330815594720378
1.849498,-1.8136110475318532
1.849964,-1.7941405355916684
1.850429,-1.7739986266880292
1.850895,-1.7533531700617988
1.851360,-1.7330434119172962
1.851826,-1.7130693522545204
1.852292,-1.6932631418326085
1.852757,-1.6734569314106966
1.853223,-1.6533150225070574
1.853688,-1.6330052643625543
1.854154,-1.613366903181506
1.854619,-1.5933928435187306
1.855085,-1.5739223315785458
1.855550,-1.5539482719157702
1.856016,-1.5349813076981766
1.856481,-1.5155107957579919
1.856947,-1.496711680781262
1.857412,-1.4775768673228045
1.857878,-1.4591134508278016
1.858343,-1.4409857328145266
1.858809,-1.4242008087281604
1.859274,-1.4074158846417946
1.859740,-1.3896238651102462
1.860205,-1.3726710917830167
1.860671,-1.3567254139009688
1.861136,-1.3411154345006484
1.861602,-1.3255054551003278
1.862067,-1.3097276264591438
1.862533,-1.2946211947814144
1.862998,-1.2793469138628213
1.863464,-1.2647440299076829
1.863929,-1.250308995193408
1.864395,-1.2358739604791333
1.864860,-1.2217746242465855
1.865326,-1.2086823834592204
1.865791,-1.1945830472266727
1.866257,-1.18115510795758
1.866723,-1.1678950179293506
1.867188,-1.1548027771419853
1.867654,-1.1428854810406652
1.868119,-1.1304646372167544
1.868585,-1.1180437933928435
1.869050,-1.1066300450141144
1.869516,-1.0938735027084765
1.869981,-1.0817883573662928
1.870447,-1.0698710612649727
1.870912,-1.058960860608835
1.871378,-1.0482185091935607
1.871843,-1.0371404592965592
1.872309,-1.0260624093995574
1.872774,-1.0153200579842834
1.873240,-1.0050812542915997
1.873705,-0.9951781490806441
1.874171,-0.9851071946288243
1.874636,-0.9757076371404593
1.875102,-0.965972381170367
1.875567,-0.9564049744411383
1.876033,-0.9475089646753643
1.876498,-0.9387808041504537
1.876964,-0.9297169451438162
1.877429,-0.9213244831006332
1.877895,-0.9125963225757228
1.878360,-0.9047074082551309
1.878826,-0.8966506446936751
1.879291,-0.8884260318913556
1.879757,-0.8803692683299
1.880223,-0.8726482032501717
1.880688,-0.8655985351338977
1.881154,-0.8583810177767605
1.881619,-0.8511635004196231
1.882085,-0.8437781338216219
1.882550,-0.8363927672236209
1.883016,-0.8296787975890745
1.883481,-0.8229648279545281
1.883947,-0.815579461356527
1.884412,-0.8085297932402532
1.884878,-0.8018158236057067
1.885343,-0.7944304570077059
1.885809,-0.787380788891432
1.886274,-0.7808346684977492
1.886740,-0.7742885481040666
1.887205,-0.7675745784695202
1.887671,-0.7615320057984283
1.888136,-0.7553215838864729
1.888602,-0.7484397650110628
1.889067,-0.7417257953765163
1.889533,-0.7353475242236972
1.889998,-0.7296406500343328
1.890464,-0.7239337758449683
1.890929,-0.7175555046921492
1.891395,-0.7108415350576027
1.891860,-0.7044632639047836
1.892326,-0.6984206912336919
1.892791,-0.6930495155260548
1.893257,-0.6876783398184176
1.893723,-0.6823071641107805
1.894188,-0.6759288929579614
1.894654,-0.6702220187685969
1.895119,-0.6645151445792324
1.895585,-0.6594796673533226
1.896050,-0.6541084916456854
1.896516,-0.6477302204928663
1.896981,-0.6426947432669565
1.897447,-0.6374914168001832
1.897912,-0.6319523918516823
1.898378,-0.6262455176623178
1.898843,-0.620706492713817
1.899309,-0.6158388647287708
1.899774,-0.610803387502861
1.900240,-0.6054322117952239
1.900705,-0.6010681315327687
1.901171,-0.5963683527885862
1.901636,-0.5916685740444038
1.902102,-0.5862973983367666
1.902567,-0.5817654688334477
1.903033,-0.5770656900892653
1.903498,-0.572198062104219
1.903964,-0.5674982833600366
1.904429,-0.5627985046158541
1.904895,-0.5584344243533989
1.905360,-0.5537346456092164
1.905826,-0.5488670176241703
1.906291,-0.5436636911573968
1.906757,-0.5389639124132143
1.907222,-0.5345998321507592
1.907688,-0.5302357518883039
1.908154,-0.525703822384985
1.908619,-0.5211718928816662
1.909085,-0.5171435111009385
1.909550,-0.5124437323567559
1.910016,-0.5075761043717097
1.910481,-0.5020370794232089
1.910947,-0.4971694514381629
1.911412,-0.49246967269398023
1.911878,-0.48793774319066147
1.912343,-0.48290226596475166
1.912809,-0.47853818570229645
1.913274,-0.47383840695811397
1.913740,-0.4691386282139315
1.914205,-0.4641031509880217
1.914671,-0.4590676737621119
1.915136,-0.4547035934996566
1.915602,-0.45067521171892877
1.916067,-0.4468146791790647
1.916533,-0.44278629739833675
1.916998,-0.43859006637674525
1.917464,-0.43456168459601735
1.917929,-0.43053330281528956
1.918395,-0.4271763179980163
1.918860,-0.4238193331807431
1.919326,-0.4201266498817426
1.919791,-0.416433966582742
1.920257,-0.41257343404287783
1.920722,-0.40871290150301365
1.921188,-0.40502021820401307
1.921654,-0.4016632333867399
1.922119,-0.39830624856946667
1.922585,-0.3952849622339208
1.923050,-0.3919279774166476
1.923516,-0.3885709925993744
1.923981,-0.3852140077821012
1.924447,-0.38185702296482793
1.924912,-0.3790035858701457
1.925378,-0.3758144502937361
1.925843,-0.37279316395819023
1.926309,-0.3696040283817807
1.926774,-0.36675059128709847
1.927240,-0.36305790798809795
1.927705,-0.36003662165255207
1.928171,-0.3568474860761425
1.928636,-0.3543297474631876
1.929102,-0.3513084611276417
1.929567,-0.34778362706950483
1.930033,-0.34392309452964065
1.930498,-0.34123750667582203
1.930964,-0.3385519188220035
1.931429,-0.33586633096818486
1.931895,-0.33250934615091166
1.932360,-0.3291523613336385
1.932826,-0.32579537651636525
1.933291,-0.3226062409399557
1.933757,-0.3197528038452735
1.934222,-0.3167315175097276
1.934688,-0.31371023117418173
1.935154,-0.31102464332036317
1.935619,-0.3076676585030899
1.936085,-0.30498207064927135
1.936550,-0.3016250858319981
1.937016,-0.29860379949645227
1.937481,-0.2960860608834973
1.937947,-0.2928969253070878
1.938412,-0.2902113374532692
1.938878,-0.2876935988403143
1.939343,-0.28517586022735936
1.939809,-0.2824902723735408
1.940274,-0.28014038300144956
1.940740,-0.27779049362935837
1.941205,-0.27493705653467615
1.941671,-0.27275501640344857
1.942136,-0.2704051270313573
1.942602,-0.26805523765926603
1.943067,-0.26637674525062943
1.943533,-0.26335545891508355
1.943998,-0.26066987106126494
1.944464,-0.2581521324483101
1.944929,-0.2561379415579461
1.945395,-0.2542915999084459
1.945860,-0.2516060120546273
1.946326,-0.24925612268253605
1.946791,-0.24707408255130842
1.947257,-0.2452277409018082
1.947722,-0.24321355001144426
1.948188,-0.240863660639353
1.948653,-0.23817807278553446
1.949119,-0.23616388189517049
1.949585,-0.2341496910048066
1.950050,-0.23247119859617
1.950516,-0.23045700770580602
1.950981,-0.22844281681544215
1.951447,-0.22659647516594186
1.951912,-0.22441443503471423
1.952378,-0.22273594262607763
1.952843,-0.22072175173571373
1.953309,-0.2178683146410315
1.953774,-0.21635767147325857
1.954240,-0.2140077821011673
1.954705,-0.2118257419699397
1.955171,-0.20964370183871214
1.955636,-0.2076295109483482
1.956102,-0.2059510185397116
1.956567,-0.20427252613107502
1.957033,-0.2025940337224384
1.957498,-0.20091554131380177
1.957964,-0.19940489814602883
1.958429,-0.19755855649652856
1.958895,-0.19588006408789194
1.959360,-0.1935301747158007
1.959826,-0.1918516823071641
1.960291,-0.18983749141680015
1.960757,-0.18815899900816355
1.961222,-0.18648050659952697
1.961688,-0.18480201419089035
1.962153,-0.18278782330052643
1.962619,-0.18144502937361714
1.963085,-0.18060578316929884
1.963550,-0.17943083848325322
1.964016,-0.1782558937972076
1.964481,-0.1774166475928893
1.964947,-0.175066758220798
1.965412,-0.1733882658121614
1.965878,-0.1722133211261158
1.966343,-0.1708705271992065
1.966809,-0.16952773327229725
1.967274,-0.16835278858625158
1.967740,-0.166674296177615
1.968205,-0.16533150225070573
1.968671,-0.16398870832379644
1.969136,-0.16298161287861446
1.969602,-0.16130312046997786
1.970067,-0.15996032654306858
1.970533,-0.1586175326161593
1.970998,-0.1569390402075227
1.971464,-0.1550926985580224
1.971929,-0.1535820553902495
1.972395,-0.1525749599450675
1.972860,-0.1508964675364309
1.973326,-0.1492179751277943
1.973791,-0.147875181200885
1.974257,-0.1461966887922484
1.974722,-0.1450217441062028
1.975188,-0.14351110093842984
1.975653,-0.1414969100480659
1.976119,-0.139482719157702
1.976585,-0.1381399252307927
1.977050,-0.13679713130388343
1.977516,-0.1347829404135195
1.977981,-0.13344014648661018
1.978447,-0.13209735255970093
1.978912,-0.1304188601510643
1.979378,-0.12907606622415504
1.979843,-0.1279011215381094
1.980309,-0.12639047837033646
1.980774,-0.1253833829251545
1.981240,-0.12471198596169988
1.981705,-0.12387273975738157
1.982171,-0.12336919203479056
1.982636,-0.12269779507133592
1.983102,-0.12185854886701762
1.983567,-0.12101930266269931
1.984033,-0.11984435797665367
1.984498,-0.11900511177233539
1.984964,-0.11833371480888075
1.985429,-0.11766231784542608
1.985895,-0.11665522240024415
1.986360,-0.11564812695506219
1.986826,-0.11430533302815289
1.987291,-0.11262684061951626
1.987757,-0.11128404669260701
1.988222,-0.11027695124742502
1.988688,-0.10893415732051576
1.989153,-0.10809491111619743
1.989619,-0.10691996643015184
1.990084,-0.1062485694666972
1.990550,-0.10490577553978789
1.991016,-0.10389868009460593
1.991481,-0.10222018768596933
1.991947,-0.10087739375906005
1.992412,-0.09953459983215075
1.992878,-0.09852750438696878
1.993343,-0.09752040894178682
1.993809,-0.09684901197833219
1.994274,-0.0955062180514229
1.994740,-0.09449912260624094
1.995205,-0.09332417792019532
1.995671,-0.092484931715877
1.996136,-0.09181353475242236
1.996602,-0.0908064393072404
1.997067,-0.08979934386205844
1.997533,-0.0891279468986038
1.997998,-0.08845654993514916
1.998464,-0.08812085145342184
1.998929,-0.08744945448996719
1.999395,-0.08661020828564889
1.999860,-0.08577096208133059
2.000326,-0.08476386663614863
2.000791,-0.08375677119096665
2.001257,-0.08274967574578469
2.001722,-0.08207827878233005
2.002188,-0.08107118333714809
2.002653,-0.08039978637369342
2.003119,-0.0800640878919661
2.003584,-0.0797283894102388
2.004050,-0.07872129396505684
2.004516,-0.0780498970016022
2.004981,-0.07737850003814756
2.005447,-0.0767071030746929
2.005912,-0.07536430914778362
2.006378,-0.07435721370260165
2.006843,-0.07368581673914701
2.007309,-0.07267872129396505
2.007774,-0.07217517357137408
2.008240,-0.07200732433051041
2.008705,-0.07133592736705577
2.009171,-0.07016098268101013
2.009636,-0.06932173647669183
2.010102,-0.06865033951323721
2.010567,-0.06797894254978255
2.011033,-0.06730754558632791
2.011498,-0.06697184710460058
2.011964,-0.06596475165941862
2.012429,-0.06546120393682765
2.012895,-0.06462195773250935
2.013360,-0.06361486228732739
2.013826,-0.0639505607690547
2.014291,-0.06294346532387274
2.014757,-0.061936369878690785
2.015222,-0.06160067139696345
2.015688,-0.06092927443350881
2.016153,-0.060593575951781484
2.016619,-0.05992217898832684
2.017084,-0.05958648050659952
2.017550,-0.059250782024872196
2.018016,-0.05857938506141757
2.018481,-0.05824368657969024
2.018947,-0.05790798809796292
2.019412,-0.05656519417105363
2.019878,-0.05589379720759898
2.020343,-0.05522240024414436
2.020809,-0.054551003280689715
2.021274,-0.054551003280689715
2.021740,-0.054551003280689715
2.022205,-0.054551003280689715
2.022671,-0.05421530479896238
2.023136,-0.05421530479896238
2.023602,-0.054551003280689715
2.024067,-0.054551003280689715
2.024533,-0.05421530479896238
2.024998,-0.05387960631723506
2.025464,-0.05304036011291676
2.025929,-0.0528725108720531
2.026395,-0.053208209353780414
2.026860,-0.05253681239032577
2.027326,-0.051865415426871134
2.027791,-0.05119401846341649
2.028257,-0.050522621499961846
2.028722,-0.050186923018234526
2.029188,-0.049851224536507206
2.029653,-0.049515526054779886
2.030119,-0.04800488288700694
2.030584,-0.04716563668268864
2.031050,-0.04649423971923399
2.031515,-0.04632639047837033
2.031981,-0.04649423971923399
2.032447,-0.04582284275577936
2.032912,-0.044480048828870064
2.033378,-0.043472953383688104
2.033843,-0.042801556420233464
2.034309,-0.0426337071793698
2.034774,-0.042465857938506144
2.035240,-0.041962310215915156
2.035705,-0.04129091325246051
2.036171,-0.04078736552986953
2.036636,-0.04011596856641489
2.037102,-0.03944457160296025
2.037567,-0.03910887312123293
2.038033,-0.03843747615777828
2.038498,-0.03776607919432364
2.038964,-0.03776607919432364
2.039429,-0.037094682230869
2.039895,-0.03675898374914168
2.040360,-0.03675898374914168
2.040826,-0.036423285267414354
2.041291,-0.035919737544823374
2.041757,-0.035416189822232394
2.042222,-0.035751888303959714
2.042688,-0.035416189822232394
2.043153,-0.03508049134050507
2.043619,-0.03457694361791409
2.044084,-0.03373769741359579
2.044550,-0.03373769741359579
2.045015,-0.03373769741359579
2.045481,-0.033066300450141146
2.045947,-0.032898451209277486
2.046412,-0.0323949034866865
2.046878,-0.03189135576409552
2.047343,-0.03189135576409552
2.047809,-0.03172350652323186
2.048274,-0.03105210955977722
2.048740,-0.029709315632867935
2.049205,-0.029037918669413288
2.049671,-0.028702220187685965
2.050136,-0.028366521705958644
2.050602,-0.027695124742504008
2.051067,-0.027695124742504008
2.051533,-0.027695124742504008
2.051998,-0.02719157701991302
2.052464,-0.026352330815594724
2.052929,-0.025009536888685433
2.053395,-0.024338139925230793
2.053860,-0.02366674296177615
2.054326,-0.02366674296177615
2.054791,-0.022995345998321506
2.055257,-0.021988250553139542
2.055722,-0.021652552071412222
2.056188,-0.020981155107957578
2.056653,-0.019806210421911954
2.057119,-0.019638361181048294
2.057584,-0.019974059662775615
2.058050,-0.019302662699320974
2.058515,-0.01896696421759365
2.058981,-0.01913481345845731
2.059447,-0.01896696421759365
2.059912,-0.01896696421759365
2.060378,-0.017959868772411687
2.060843,-0.017959868772411687
2.061309,-0.017959868772411687
2.061774,-0.017288471808957043
2.062240,-0.017288471808957043
2.062705,-0.017120622568093383
2.063171,-0.017288471808957043
2.063636,-0.017624170290684367
2.064102,-0.017624170290684367
2.064567,-0.017624170290684367
2.065033,-0.017624170290684367
2.065498,-0.017120622568093383
2.065964,-0.01695277332722972
2.066429,-0.01695277332722972
2.066895,-0.017288471808957043
2.067360,-0.016784924086366067
2.067826,-0.016617074845502403
2.068291,-0.016617074845502403
2.068757,-0.01594567788204776
2.069222,-0.01560997940032044
2.069688,-0.01527428091859312
2.070153,-0.014938582436865796
2.070619,-0.015106431677729458
2.071084,-0.015106431677729458
2.071550,-0.014602883955138474
2.072015,-0.013931486991683832
2.072481,-0.01359578850995651
2.072946,-0.013092240787365528
2.073412,-0.01292439154650187
2.073878,-0.012588693064774548
2.074343,-0.012252994583047227
2.074809,-0.011917296101319903
2.075274,-0.011078049897001601
2.075740,-0.011245899137865261
2.076205,-0.010910200656137941
2.076671,-0.010910200656137941
2.077136,-0.011413748378728923
2.077602,-0.011917296101319903
2.078067,-0.011917296101319903
2.078533,-0.012252994583047227
2.078998,-0.012252994583047227
2.079464,-0.011581597619592583
2.079929,-0.011581597619592583
2.080395,-0.012252994583047227
2.080860,-0.012588693064774548
2.081326,-0.012588693064774548
2.081791,-0.012252994583047227
2.082257,-0.011917296101319903
2.082722,-0.012252994583047227
2.083188,-0.012252994583047227
2.083653,-0.011917296101319903
2.084119,-0.011749446860456245
2.084584,-0.012252994583047227
2.085050,-0.012252994583047227
2.085515,-0.011581597619592583
2.085981,-0.011245899137865261
2.086446,-0.011078049897001601
2.086912,-0.011078049897001601
2.087378,-0.011078049897001601
2.087843,-0.010910200656137941
2.088309,-0.011078049897001601
2.088774,-0.010910200656137941
2.089240,-0.010238803692683297
2.089705,-0.009567406729228655
2.090171,-0.009567406729228655
2.090636,-0.009735255970092317
2.091102,-0.009903105210955977
2.091567,-0.009231708247501335
2.092033,-0.008392462043183033
2.092498,-0.007721065079728388
2.092964,-0.007217517357137408
2.093429,-0.006881818875410085
2.093895,-0.007049668116273747
2.094360,-0.006881818875410085
2.094826,-0.006881818875410085
2.095291,-0.006210421911955443
2.095757,-0.005874723430228122
2.096222,-0.005706874189364461
2.096688,-0.005874723430228122
2.097153,-0.0055390249485008005
2.097619,-0.004531929503318838
2.098084,-0.004867627985046159
2.098550,-0.004531929503318838
2.099015,-0.004531929503318838
2.099481,-0.004531929503318838
2.099946,-0.004028381780727854
2.100412,-0.003692683299000534
2.100877,-0.003860532539864194
2.101343,-0.003692683299000534
2.101809,-0.0035248340581368735
2.102274,-0.003189135576409552
2.102740,-0.0030212863355458916
2.103205,-0.003189135576409552
2.103671,-0.0028534370946822307
2.104136,-0.003189135576409552
2.104602,-0.0030212863355458916
2.105067,-0.0030212863355458916
2.105533,-0.0028534370946822307
2.105998,-0.0028534370946822307
2.106464,-0.0028534370946822307
2.106929,-0.0035248340581368735
2.107395,-0.0030212863355458916
2.107860,-0.0028534370946822307
2.108326,-0.0028534370946822307
2.108791,-0.003189135576409552
2.109257,-0.0035248340581368735
2.109722,-0.0035248340581368735
2.110188,-0.0035248340581368735
